,FNZ.NZ,NZB.NZ,USF.NZ,GBF.NZ,NZC.NZ,TNZ.NZ,MDZ.NZ,EUF.NZ,MZY.NZ,OZY.NZ,NPF.NZ,EMF.NZ,NZG.NZ,APA.NZ,USG.NZ,DIV.NZ,USM.NZ,USV.NZ,TWF.NZ,USS.NZ,AGG.NZ,ASP.NZ,USA.NZ,BOT.NZ,EMG.NZ,EUG.NZ,NGB.NZ,LIV.NZ,ASR.NZ,ASD.NZ,ASF.NZ,JPN.NZ,AUS.NZ,TWH.NZ,ESG.NZ,CO2.NZ
0,3.069999933242798,3.0829999446868896,8.90999984741211,3.2690000534057617,2.9700000286102295,1.9459999799728394,5.801000118255615,1.809999942779541,7.3420000076293945,3.944000005722046,1.4609999656677246,1.350000023841858,,2.1700000762939453,5.369999885559082,1.284000039100647,5.349999904632568,3.6600000858306885,2.4700000286102295,4.96999979019165,1.343000054359436,1.6150000095367432,2.240000009536743,3.2100000381469727,2.180000066757202,2.5199999809265137,,2.490000009536743,5.196000099182129,1.7170000076293945,7.284999847412109,2.069999933242798,,,,
1,3.0850000381469727,3.0829999446868896,8.970000267028809,3.2660000324249268,2.9700000286102295,1.9630000591278076,5.849999904632568,1.7899999618530273,7.353000164031982,3.9579999446868896,1.4589999914169312,1.3600000143051147,,2.180000066757202,5.400000095367432,1.2920000553131104,5.369999885559082,3.6500000953674316,2.4800000190734863,5.010000228881836,1.343999981880188,1.6009999513626099,2.25,3.2300000190734863,2.200000047683716,2.5199999809265137,,2.5250000953674316,5.199999809265137,1.7209999561309814,7.304999828338623,2.0799999237060547,,,,
2,3.0929999351501465,3.0799999237060547,8.920000076293945,3.2660000324249268,2.9679999351501465,1.9780000448226929,5.900000095367432,1.7899999618530273,7.35699987411499,3.947000026702881,1.4800000190734863,1.350000023841858,,2.1600000858306885,5.369999885559082,1.2940000295639038,5.349999904632568,3.6600000858306885,2.4700000286102295,5.010000228881836,1.340000033378601,1.5880000591278076,2.25,3.200000047683716,2.200000047683716,2.515000104904175,,2.5,5.1620001792907715,1.718999981880188,7.2829999923706055,2.049999952316284,,,2.180000066757202,
3,3.121000051498413,3.0820000171661377,8.949999809265137,3.260999917984009,2.9679999351501465,1.9889999628067017,5.949999809265137,1.7899999618530273,7.375999927520752,3.9119999408721924,1.4700000286102295,1.350000023841858,,2.140000104904175,5.400000095367432,1.312000036239624,5.360000133514404,3.6600000858306885,2.4800000190734863,4.980000019073486,1.340999960899353,1.6039999723434448,2.240000009536743,3.2049999237060547,2.190000057220459,2.5,,2.5199999809265137,5.193999767303467,1.7139999866485596,7.244999885559082,2.0450000762939453,,,2.180000066757202,
4,3.1579999923706055,3.078000068664551,8.979999542236328,3.260999917984009,2.9700000286102295,1.9900000095367432,5.980000019073486,1.7799999713897705,7.361000061035156,3.9200000762939453,1.4859999418258667,1.3700000047683716,,2.1600000858306885,5.429999828338623,1.3200000524520874,5.400000095367432,3.6700000762939453,2.4800000190734863,5.019999980926514,1.340999960899353,1.6030000448226929,2.240000009536743,3.2100000381469727,2.200000047683716,2.509999990463257,,2.5399999618530273,5.138000011444092,1.7109999656677246,7.230999946594238,2.049999952316284,,,2.2049999237060547,
5,3.134000062942505,3.078000068664551,8.90999984741211,3.260999917984009,2.9700000286102295,1.9950000047683716,6.008999824523926,1.7699999809265137,7.361000061035156,3.9140000343322754,1.496999979019165,1.350000023841858,,2.130000114440918,5.400000095367432,1.3279999494552612,5.349999904632568,3.640000104904175,2.4700000286102295,4.989999771118164,1.343999981880188,1.600000023841858,2.25,3.2100000381469727,2.200000047683716,2.509999990463257,,2.5299999713897705,5.1479997634887695,1.7050000429153442,7.206999778747559,2.0399999618530273,,,2.1600000858306885,
6,3.134000062942505,3.078000068664551,8.90999984741211,3.260999917984009,,1.9950000047683716,6.008999824523926,1.7699999809265137,,3.9140000343322754,1.496999979019165,1.350000023841858,,2.130000114440918,5.400000095367432,1.3279999494552612,5.349999904632568,3.640000104904175,2.4700000286102295,4.989999771118164,1.343999981880188,1.600000023841858,2.25,3.2100000381469727,2.200000047683716,,,2.5299999713897705,5.1479997634887695,1.7050000429153442,7.206999778747559,2.0399999618530273,,,2.1600000858306885,
7,3.1630001068115234,3.0759999752044678,8.899999618530273,3.260999917984009,2.9700000286102295,1.9910000562667847,6.052000045776367,1.7699999809265137,7.336999893188477,3.9140000343322754,1.4919999837875366,1.350000023841858,,2.119999885559082,5.409999847412109,1.3220000267028809,5.320000171661377,3.619999885559082,2.450000047683716,4.940000057220459,1.343999981880188,1.593000054359436,2.240000009536743,3.1700000762939453,2.180000066757202,2.5,,2.5299999713897705,5.171999931335449,1.7050000429153442,7.197999954223633,2.0199999809265137,,,2.1700000762939453,
8,3.1679999828338623,3.0769999027252197,8.850000381469727,3.259999990463257,2.9690001010894775,1.9830000400543213,6.0920000076293945,1.7799999713897705,7.264999866485596,3.881999969482422,1.50600004196167,1.3600000143051147,,2.0899999141693115,5.380000114440918,1.3200000524520874,5.28000020980835,3.5899999141693115,2.450000047683716,4.929999828338623,1.3489999771118164,1.5859999656677246,2.240000009536743,3.174999952316284,2.190000057220459,2.5,,2.509999990463257,5.1570000648498535,1.6799999475479126,7.14300012588501,2.009999990463257,,,2.1700000762939453,
9,3.1500000953674316,3.0799999237060547,8.779999732971191,3.259999990463257,2.9690001010894775,1.9809999465942383,6.031000137329102,1.7599999904632568,7.2210001945495605,3.882999897003174,1.4900000095367432,1.350000023841858,,2.0899999141693115,5.329999923706055,1.3109999895095825,5.25,3.549999952316284,2.430000066757202,4.889999866485596,1.3450000286102295,1.5950000286102295,2.2300000190734863,3.1700000762939453,2.200000047683716,2.5,,2.5,5.133999824523926,1.690000057220459,7.168000221252441,2.009999990463257,,,2.140000104904175,
10,3.1640000343322754,3.0799999237060547,8.989999771118164,3.2639999389648438,2.9709999561309814,1.9789999723434448,6.0970001220703125,1.7699999809265137,7.320000171661377,3.9070000648498535,1.5019999742507935,1.3899999856948853,,2.1500000953674316,5.46999979019165,1.3179999589920044,5.349999904632568,3.6500000953674316,2.4600000381469727,4.960000038146973,1.3420000076293945,1.6119999885559082,2.2300000190734863,3.2200000286102295,2.2100000381469727,2.490000009536743,,2.4700000286102295,5.169000148773193,1.7039999961853027,7.203000068664551,1.9900000095367432,,,2.1700000762939453,
11,3.1619999408721924,3.0820000171661377,8.9399995803833,3.2679998874664307,2.9709999561309814,1.9759999513626099,6.079999923706055,1.7599999904632568,7.2729997634887695,3.861999988555908,1.4919999837875366,1.3799999952316284,,2.130000114440918,5.449999809265137,1.3140000104904175,5.360000133514404,3.609999895095825,2.4700000286102295,4.96999979019165,1.3370000123977661,1.6100000143051147,2.25,3.190000057220459,2.2100000381469727,2.509999990463257,,2.5,5.182000160217285,1.6710000038146973,7.060999870300293,2.009999990463257,,,2.180000066757202,
12,3.1579999923706055,3.0850000381469727,8.9399995803833,3.2750000953674316,2.9719998836517334,1.9919999837875366,6.080999851226807,1.7599999904632568,7.320000171661377,3.8959999084472656,1.4900000095367432,1.350000023841858,,2.109999895095825,5.46999979019165,1.3200000524520874,5.360000133514404,3.609999895095825,2.450000047683716,4.949999809265137,1.3370000123977661,1.6150000095367432,2.25,3.1700000762939453,2.200000047683716,2.5,,2.4700000286102295,5.192999839782715,1.6799999475479126,7.175000190734863,2.009999990463257,,,2.180000066757202,
13,3.1470000743865967,3.0869998931884766,8.960000038146973,3.2739999294281006,2.9700000286102295,1.9600000381469727,6.059999942779541,1.7799999713897705,7.236000061035156,3.885999917984009,1.496999979019165,1.3799999952316284,,2.130000114440918,5.480000019073486,1.319000005722046,5.389999866485596,3.609999895095825,2.4600000381469727,4.960000038146973,1.3420000076293945,1.600000023841858,2.25,3.2200000286102295,2.2100000381469727,2.490000009536743,,2.5,5.2220001220703125,1.6829999685287476,7.091000080108643,2.0299999713897705,,,2.190000057220459,
14,3.1510000228881836,3.0910000801086426,9.020000457763672,3.2720000743865967,2.9700000286102295,1.968000054359436,6.098999977111816,1.7899999618530273,7.334000110626221,3.928999900817871,1.4950000047683716,1.3799999952316284,,2.1500000953674316,5.53000020980835,1.3279999494552612,5.369999885559082,3.630000114440918,2.490000009536743,4.96999979019165,1.347000002861023,1.6100000143051147,2.259999990463257,3.2100000381469727,2.200000047683716,2.490000009536743,,2.4800000190734863,5.230000019073486,1.7050000429153442,7.191999912261963,2.0199999809265137,,,2.180000066757202,
15,3.1540000438690186,3.0910000801086426,9.130000114440918,3.2699999809265137,2.9700000286102295,1.972000002861023,6.11299991607666,1.7999999523162842,7.396999835968018,3.9790000915527344,1.4980000257492065,1.3899999856948853,,2.1500000953674316,5.610000133514404,1.3329999446868896,5.440000057220459,3.630000114440918,2.509999990463257,5.03000020980835,1.3370000123977661,1.621000051498413,2.299999952316284,3.2799999713897705,2.25,2.5199999809265137,,2.569999933242798,5.235000133514404,1.7120000123977661,7.2179999351501465,2.049999952316284,,,2.2200000286102295,
16,3.1589999198913574,3.0910000801086426,9.0600004196167,3.2709999084472656,2.9719998836517334,1.9609999656677246,6.080999851226807,1.7799999713897705,7.420000076293945,3.9639999866485596,1.4930000305175781,1.3799999952316284,,2.1500000953674316,5.570000171661377,1.3339999914169312,5.40500020980835,3.640000104904175,2.490000009536743,5.010000228881836,1.3459999561309814,1.6169999837875366,2.2899999618530273,3.2799999713897705,2.25,2.5,,2.559999942779541,5.203999996185303,1.715999960899353,7.252999782562256,2.0299999713897705,,,2.200000047683716,
17,3.180000066757202,3.0899999141693115,9.140000343322754,3.2739999294281006,2.9700000286102295,1.9789999723434448,6.135000228881836,1.7599999904632568,7.453999996185303,3.9800000190734863,1.4989999532699585,1.399999976158142,,2.180000066757202,5.650000095367432,1.343000054359436,5.46999979019165,3.6700000762939453,2.5199999809265137,5.039999961853027,1.343999981880188,1.6360000371932983,2.2899999618530273,3.319999933242798,2.2699999809265137,2.509999990463257,,2.5299999713897705,5.251999855041504,1.722000002861023,7.306000232696533,2.0299999713897705,,,2.2100000381469727,
18,3.187000036239624,3.0899999141693115,9.15999984741211,3.2690000534057617,2.9700000286102295,1.9910000562667847,6.1570000648498535,1.7799999713897705,7.544000148773193,4.0229997634887695,1.5099999904632568,1.4299999475479126,,2.1710000038146973,5.630000114440918,1.3450000286102295,5.480000019073486,3.680000066757202,2.5199999809265137,5.070000171661377,1.343999981880188,1.6469999551773071,2.299999952316284,3.3299999237060547,2.2699999809265137,2.5199999809265137,,2.549999952316284,5.315000057220459,1.7319999933242798,7.3429999351501465,2.0199999809265137,,,2.2200000286102295,
19,3.2009999752044678,3.0889999866485596,9.140000343322754,3.2709999084472656,2.9719998836517334,2.006999969482422,6.164999961853027,1.7999999523162842,7.553999900817871,4.039999961853027,1.5119999647140503,1.399999976158142,,2.1510000228881836,5.630000114440918,1.3539999723434448,5.460000038146973,3.680000066757202,2.509999990463257,5.059999942779541,1.3489999771118164,1.656000018119812,2.299999952316284,3.309999942779541,2.259999990463257,2.5199999809265137,,2.5799999237060547,5.311999797821045,1.7480000257492065,7.377999782562256,2.0299999713897705,,,2.200000047683716,
20,3.2170000076293945,3.0899999141693115,9.180000305175781,3.2730000019073486,2.9730000495910645,2.013000011444092,6.176000118255615,1.7999999523162842,7.567999839782715,4.050000190734863,1.5199999809265137,1.409999966621399,,2.180000066757202,5.670000076293945,1.3630000352859497,5.53000020980835,3.690000057220459,2.5299999713897705,5.099999904632568,1.3459999561309814,1.6699999570846558,2.309999942779541,3.309999942779541,2.259999990463257,2.5199999809265137,,2.5999999046325684,5.326000213623047,1.7510000467300415,7.425000190734863,2.0299999713897705,,,2.2200000286102295,
21,3.2049999237060547,3.0899999141693115,9.260000228881836,3.2739999294281006,2.9719998836517334,2.009999990463257,6.159999847412109,1.809999942779541,7.565999984741211,4.063000202178955,1.5190000534057617,1.4199999570846558,,2.190000057220459,5.71999979019165,1.3519999980926514,5.550000190734863,3.7100000381469727,2.549999952316284,5.119999885559082,1.340000033378601,1.6649999618530273,2.319999933242798,3.359999895095825,2.259999990463257,2.5399999618530273,,2.619999885559082,5.422999858856201,1.753000020980835,7.434999942779541,2.0399999618530273,,,2.240000009536743,
22,3.2139999866485596,3.0910000801086426,9.270000457763672,3.2750000953674316,2.9730000495910645,2.0199999809265137,6.159999847412109,1.809999942779541,7.543000221252441,4.039999961853027,1.5180000066757202,1.4199999570846558,,2.1700000762939453,5.710000038146973,1.3519999980926514,5.559999942779541,3.7200000286102295,2.549999952316284,5.130000114440918,1.3459999561309814,1.656000018119812,2.3299999237060547,3.369999885559082,2.2699999809265137,2.5199999809265137,,2.619999885559082,5.383999824523926,1.746999979019165,7.339000225067139,2.0450000762939453,,,2.25,
23,3.23799991607666,3.0889999866485596,9.270000457763672,3.2750000953674316,2.9730000495910645,2.0480000972747803,6.188000202178955,1.7899999618530273,7.585000038146973,4.090000152587891,1.5199999809265137,1.399999976158142,,2.1600000858306885,5.760000228881836,1.3569999933242798,5.559999942779541,3.7100000381469727,2.5299999713897705,5.110000133514404,1.340999960899353,1.6690000295639038,2.3399999141693115,3.3399999141693115,2.240000009536743,2.5399999618530273,,2.619999885559082,5.436999797821045,1.7599999904632568,7.385000228881836,2.0399999618530273,,,2.25,
24,3.234999895095825,3.0929999351501465,9.279999732971191,3.2809998989105225,2.9719998836517334,2.0450000762939453,6.185999870300293,1.809999942779541,7.5370001792907715,4.085000038146973,1.5369999408721924,1.399999976158142,,2.190000057220459,5.75,1.3509999513626099,5.559999942779541,3.690000057220459,2.5299999713897705,5.110000133514404,1.350000023841858,1.684000015258789,2.319999933242798,3.380000114440918,2.259999990463257,2.5199999809265137,,2.619999885559082,5.375999927520752,1.7400000095367432,7.435999870300293,2.0399999618530273,,,2.25,
25,3.2300000190734863,3.0910000801086426,9.25,3.2799999713897705,2.9709999561309814,2.0480000972747803,6.1579999923706055,1.7899999618530273,7.535999774932861,4.085000038146973,1.5290000438690186,1.3799999952316284,,2.180000066757202,5.75,1.347000002861023,5.559999942779541,3.6989998817443848,2.5199999809265137,5.099999904632568,1.3530000448226929,1.6670000553131104,2.309999942779541,3.309999942779541,2.190000057220459,2.509999990463257,,2.5799999237060547,5.302999973297119,1.7300000190734863,7.425000190734863,2.0299999713897705,,,2.2300000190734863,
26,3.2149999141693115,3.0929999351501465,9.239999771118164,3.2799999713897705,2.9730000495910645,2.0299999713897705,6.150000095367432,1.7999999523162842,7.423999786376953,4.059999942779541,1.5290000438690186,1.3600000143051147,,2.1600000858306885,5.710000038146973,1.340999960899353,5.539999961853027,3.680000066757202,2.5199999809265137,5.050000190734863,1.3539999723434448,1.6799999475479126,2.3299999237060547,3.3499999046325684,2.2200000286102295,2.5299999713897705,,2.5799999237060547,5.316999912261963,1.7350000143051147,7.425000190734863,2.0199999809265137,,,2.25,
27,3.177000045776367,3.0929999351501465,9.140000343322754,3.2909998893737793,2.9719998836517334,2.01200008392334,6.10099983215332,1.7799999713897705,7.401000022888184,3.999000072479248,1.5169999599456787,1.3300000429153442,,2.131999969482422,5.670000076293945,1.3300000429153442,5.480000019073486,3.640000104904175,2.5,5.010000228881836,1.3589999675750732,1.659999966621399,2.299999952316284,3.2300000190734863,2.1540000438690186,2.4700000286102295,,2.5399999618530273,5.129000186920166,1.6890000104904175,7.300000190734863,2.0199999809265137,,,2.180000066757202,
28,3.190000057220459,3.1029999256134033,9.220000267028809,3.2980000972747803,2.9719998836517334,2.006999969482422,6.11299991607666,1.7699999809265137,7.460000038146973,4.053999900817871,1.5219999551773071,1.350000023841858,,2.140000104904175,5.760000228881836,1.3329999446868896,5.550000190734863,3.680000066757202,2.5199999809265137,5.059999942779541,1.3559999465942383,1.659000039100647,2.319999933242798,3.2899999618530273,2.1700000762939453,2.509999990463257,,2.5799999237060547,5.14900016784668,1.7059999704360962,7.360000133514404,2.0199999809265137,,,2.2300000190734863,
29,3.174999952316284,3.0999999046325684,9.25,3.2960000038146973,2.9739999771118164,2.0,6.074999809265137,1.7799999713897705,7.414000034332275,4.03000020980835,1.524999976158142,1.350000023841858,,2.140000104904175,5.78000020980835,1.3240000009536743,5.53000020980835,3.680000066757202,2.5199999809265137,5.070000171661377,1.3600000143051147,1.659000039100647,2.319999933242798,3.299999952316284,2.200000047683716,2.5399999618530273,,2.5799999237060547,5.104000091552734,1.7020000219345093,7.370999813079834,2.0399999618530273,,,2.25,
30,3.1619999408721924,3.1040000915527344,9.34000015258789,3.3010001182556152,2.9739999771118164,2.003000020980835,6.064000129699707,1.7999999523162842,7.5,4.063000202178955,1.524999976158142,1.350000023841858,,2.1600000858306885,5.820000171661377,1.3220000267028809,5.570000171661377,3.690000057220459,2.5299999713897705,5.099999904632568,1.3619999885559082,1.6660000085830688,2.3299999237060547,3.2200000286102295,2.1600000858306885,2.5,,2.5409998893737793,5.1519999504089355,1.715000033378601,7.415999889373779,2.0299999713897705,,,2.2300000190734863,
31,3.1389999389648438,3.1040000915527344,9.1899995803833,3.3010001182556152,2.9719998836517334,1.9839999675750732,6.01800012588501,1.7799999713897705,7.354000091552734,3.99399995803833,1.5210000276565552,1.3250000476837158,,2.0999999046325684,5.739999771118164,1.3079999685287476,5.5,3.6600000858306885,2.4800000190734863,5.0,1.3660000562667847,1.659000039100647,2.299999952316284,3.2200000286102295,2.119999885559082,2.5350000858306885,,2.500999927520752,4.9770002365112305,1.6770000457763672,7.366000175476074,1.9900000095367432,,,2.2200000286102295,
32,3.121000051498413,3.109999895095825,9.270000457763672,3.305000066757202,2.9719998836517334,1.9800000190734863,6.020999908447266,1.7799999713897705,7.3460001945495605,4.025000095367432,1.5169999599456787,1.340000033378601,,2.119999885559082,5.820000171661377,1.3079999685287476,5.550000190734863,3.6700000762939453,2.5199999809265137,5.070000171661377,1.3680000305175781,1.6729999780654907,2.3299999237060547,3.2200000286102295,2.1500000953674316,2.5199999809265137,,2.559999942779541,4.948999881744385,1.6770000457763672,7.331999778747559,2.0299999713897705,,,2.2200000286102295,
33,3.1419999599456787,3.111999988555908,9.380000114440918,3.305999994277954,2.9739999771118164,1.9830000400543213,6.0329999923706055,1.809999942779541,7.4039998054504395,4.021999835968018,1.5269999504089355,1.3700000047683716,,2.1500000953674316,5.900000095367432,1.315000057220459,5.599999904632568,3.6700000762939453,2.549999952316284,5.130000114440918,1.3609999418258667,1.6679999828338623,2.359999895095825,3.2899999618530273,2.2100000381469727,2.5399999618530273,,2.6089999675750732,5.0320000648498535,1.680999994277954,7.322000026702881,2.049999952316284,,,2.240000009536743,
34,3.1679999828338623,3.1040000915527344,9.529999732971191,3.299999952316284,2.9739999771118164,2.0179998874664307,6.050000190734863,1.8300000429153442,7.50600004196167,4.052000045776367,1.531000018119812,1.3700000047683716,,2.200000047683716,5.960000038146973,1.3250000476837158,5.679999828338623,3.7799999713897705,2.5899999141693115,5.190000057220459,1.3559999465942383,1.6690000295639038,2.4000000953674316,3.3499999046325684,2.2300000190734863,2.5799999237060547,,2.6700000762939453,5.031000137329102,1.6950000524520874,7.409999847412109,2.0899999141693115,,,2.299999952316284,
35,3.1440000534057617,3.1029999256134033,9.579999923706055,3.2990000247955322,2.9739999771118164,2.007999897003174,6.0370001792907715,1.8200000524520874,7.519999980926514,4.093999862670898,1.524999976158142,1.3700000047683716,,2.187999963760376,5.980000019073486,1.3200000524520874,5.659999847412109,3.7799999713897705,2.569999933242798,5.190000057220459,1.3600000143051147,1.6799999475479126,2.4200000762939453,3.3299999237060547,2.200000047683716,2.5899999141693115,,2.6500000953674316,5.019000053405762,1.687999963760376,7.426000118255615,2.0799999237060547,,,2.2899999618530273,
36,3.184999942779541,3.1059999465942383,9.670000076293945,3.305999994277954,2.9739999771118164,2.0439999103546143,6.081999778747559,1.8300000429153442,7.635000228881836,4.119999885559082,1.527999997138977,1.3700000047683716,,2.190000057220459,6.090000152587891,1.3359999656677246,5.730000019073486,3.799999952316284,2.609999895095825,5.230000019073486,1.3559999465942383,1.7050000429153442,2.4200000762939453,3.3299999237060547,2.2200000286102295,2.569999933242798,,2.6500000953674316,5.065000057220459,1.715999960899353,7.426000118255615,2.0999999046325684,,,2.319999933242798,
37,3.197999954223633,3.1080000400543213,9.550000190734863,3.305999994277954,2.9739999771118164,2.065999984741211,6.061999797821045,1.8200000524520874,7.605000019073486,4.113999843597412,1.5240000486373901,1.3700000047683716,,2.190000057220459,6.019999980926514,1.3350000381469727,5.75,3.7799999713897705,2.5899999141693115,5.210000038146973,1.3619999885559082,1.6959999799728394,2.4200000762939453,3.3399999141693115,2.240000009536743,2.5899999141693115,,2.6600000858306885,5.015999794006348,1.7109999656677246,7.541999816894531,2.0899999141693115,,,2.309999942779541,
38,3.2060000896453857,3.1019999980926514,9.65999984741211,3.305999994277954,2.9749999046325684,2.068000078201294,6.065000057220459,1.850000023841858,7.644999980926514,4.136000156402588,1.5240000486373901,1.4199999570846558,,2.2100000381469727,6.079999923706055,1.3339999914169312,5.739999771118164,3.7899999618530273,2.609999895095825,5.239999771118164,1.3609999418258667,1.7079999446868896,2.430000066757202,3.390000104904175,2.2699999809265137,2.5999999046325684,,2.6700000762939453,5.061999797821045,1.7200000286102295,7.5920000076293945,2.0799999237060547,,,2.319999933242798,
39,3.196000099182129,3.1019999980926514,9.65999984741211,3.305999994277954,2.9749999046325684,2.052999973297119,6.068999767303467,1.8200000524520874,7.644999980926514,4.1620001792907715,1.5199999809265137,1.399999976158142,,2.190000057220459,6.099999904632568,1.3359999656677246,5.760000228881836,3.799999952316284,2.609999895095825,5.239999771118164,1.3600000143051147,1.7120000123977661,2.440000057220459,3.380000114440918,2.240000009536743,2.5899999141693115,,2.6700000762939453,5.056000232696533,1.718000054359436,7.644000053405762,2.0799999237060547,,,2.3299999237060547,
40,3.190999984741211,3.1029999256134033,9.6899995803833,3.305999994277954,2.9749999046325684,2.069000005722046,6.048999786376953,1.850000023841858,7.640999794006348,4.156000137329102,1.5210000276565552,1.3949999809265137,,2.1600000858306885,6.139999866485596,1.3289999961853027,5.78000020980835,3.799999952316284,2.619999885559082,5.28000020980835,1.3609999418258667,1.7280000448226929,2.450000047683716,3.359999895095825,2.2699999809265137,2.5899999141693115,,2.700000047683716,5.063000202178955,1.715999960899353,7.6620001792907715,2.059999942779541,,,2.3299999237060547,
41,3.2100000381469727,3.1040000915527344,9.720000267028809,3.309000015258789,2.9749999046325684,2.066999912261963,6.073999881744385,1.8300000429153442,7.573999881744385,4.164000034332275,1.534999966621399,1.371000051498413,,2.1700000762939453,6.159999847412109,1.3450000286102295,5.78000020980835,3.799999952316284,2.630000114440918,5.269999980926514,1.3619999885559082,1.7239999771118164,2.4200000762939453,3.3940000534057617,2.2699999809265137,2.5999999046325684,,2.7200000286102295,5.038000106811523,1.7170000076293945,7.685999870300293,2.0299999713897705,,,2.3399999141693115,
42,3.2160000801086426,3.1080000400543213,9.720000267028809,3.308000087738037,2.9760000705718994,2.0799999237060547,6.090000152587891,1.8309999704360962,7.629000186920166,4.178999900817871,1.5449999570846558,1.399999976158142,,2.1700000762939453,6.170000076293945,1.3380000591278076,5.800000190734863,3.799999952316284,2.609999895095825,5.289999961853027,1.3630000352859497,1.75,2.430000066757202,3.311000108718872,2.240000009536743,2.569999933242798,,2.700000047683716,5.050000190734863,1.715000033378601,7.640999794006348,2.0199999809265137,,,2.319999933242798,
43,3.243000030517578,3.1080000400543213,9.8100004196167,3.312000036239624,2.9739999771118164,2.1070001125335693,6.0980000495910645,1.850000023841858,7.636000156402588,4.188000202178955,1.5429999828338623,1.4199999570846558,,2.180000066757202,6.25,1.3519999980926514,5.849999904632568,3.8299999237060547,2.640000104904175,5.340000152587891,1.3600000143051147,1.7510000467300415,2.4800000190734863,3.380000114440918,2.2899999618530273,2.630000114440918,,2.75,5.091000080108643,1.7309999465942383,7.741000175476074,2.0399999618530273,,,2.359999895095825,
44,3.240000009536743,3.109999895095825,9.819999694824219,3.309999942779541,2.9760000705718994,2.1080000400543213,6.079999923706055,1.8600000143051147,7.625,4.189000129699707,1.5460000038146973,1.3899999856948853,,2.1500000953674316,6.260000228881836,1.343999981880188,5.869999885559082,3.8399999141693115,2.6500000953674316,5.369999885559082,1.3630000352859497,1.7369999885559082,2.430000066757202,3.369999885559082,2.240000009536743,2.609999895095825,,2.700000047683716,5.052999973297119,1.7230000495910645,7.714000225067139,2.0,,,2.3299999237060547,
45,3.196000099182129,3.114000082015991,9.729999542236328,3.313999891281128,2.9739999771118164,2.069999933242798,6.045000076293945,1.8600000143051147,7.4079999923706055,4.104000091552734,1.5329999923706055,1.3799999952316284,,2.1500000953674316,6.119999885559082,1.3380000591278076,5.820000171661377,3.8299999237060547,2.619999885559082,5.320000171661377,1.3700000047683716,1.7089999914169312,2.440000057220459,3.3299999237060547,2.2200000286102295,2.5999999046325684,,2.7100000381469727,4.931000232696533,1.6640000343322754,7.5960001945495605,2.0,,,2.3399999141693115,
46,3.1579999923706055,3.118000030517578,9.359999656677246,3.318000078201294,2.9760000705718994,2.0439999103546143,5.952000141143799,1.75,7.223999977111816,4.026000022888184,1.5369999408721924,1.3300000429153442,,2.049999952316284,5.880000114440918,1.312999963760376,5.599999904632568,3.6700000762939453,2.5,5.119999885559082,1.3680000305175781,1.6990000009536743,2.3399999141693115,3.1700000762939453,2.130000114440918,2.5,,2.569999933242798,4.820000171661377,1.6399999856948853,7.525000095367432,1.940000057220459,,,2.25,
47,3.0899999141693115,3.118000030517578,9.050000190734863,3.321000099182129,2.9760000705718994,2.0230000019073486,5.807000160217285,1.6399999856948853,7.034999847412109,3.944000005722046,1.503999948501587,1.2879999876022339,,1.9800000190734863,5.650000095367432,1.2899999618530273,5.389999866485596,3.549999952316284,2.5,4.940000057220459,1.371000051498413,1.6799999475479126,2.299999952316284,3.180000066757202,2.1700000762939453,2.450000047683716,,2.609999895095825,4.716000080108643,1.6019999980926514,7.354000091552734,1.909999966621399,,,2.200000047683716,
48,3.063999891281128,3.0999999046325684,9.119999885559082,3.311000108718872,2.9660000801086426,2.0,5.743000030517578,1.7100000381469727,7.035999774932861,3.9040000438690186,1.5049999952316284,1.2999999523162842,,2.0399999618530273,5.78000020980835,1.2599999904632568,5.429999828338623,3.559999942779541,2.4800000190734863,4.909999847412109,1.3630000352859497,1.6579999923706055,2.3399999141693115,3.1700000762939453,2.1700000762939453,2.4800000190734863,,2.630000114440918,4.63700008392334,1.5809999704360962,7.130000114440918,1.9670000076293945,,,2.2100000381469727,
49,3.009999990463257,3.1019999980926514,8.739999771118164,3.311000108718872,2.9660000801086426,1.968000054359436,5.627999782562256,1.6799999475479126,6.817999839782715,3.8310000896453857,1.4910000562667847,1.2999999523162842,,2.0,5.550000190734863,1.2280000448226929,5.260000228881836,3.4600000381469727,2.380000114440918,4.739999771118164,1.371999979019165,1.6119999885559082,2.2699999809265137,3.059999942779541,2.0999999046325684,2.4700000286102295,,2.5,4.479000091552734,1.559999942779541,6.925000190734863,1.8899999856948853,,,2.180000066757202,
50,2.934999942779541,3.1089999675750732,8.729999542236328,3.302000045776367,2.9660000801086426,1.9500000476837158,5.48799991607666,1.6799999475479126,6.788000106811523,3.7660000324249268,1.4559999704360962,1.2799999713897705,,2.0199999809265137,5.53000020980835,1.1979999542236328,5.150000095367432,3.359999895095825,2.380000114440918,4.690000057220459,1.3799999952316284,1.6160000562667847,2.1600000858306885,2.990000009536743,2.0899999141693115,2.380000114440918,,2.4600000381469727,4.46999979019165,1.5369999408721924,6.86899995803833,1.8799999952316284,,,2.0899999141693115,
51,3.010999917984009,3.115999937057495,9.100000381469727,3.309999942779541,2.9649999141693115,1.9980000257492065,5.696000099182129,1.7400000095367432,6.85699987411499,3.805999994277954,1.4859999418258667,1.340000033378601,,2.0299999713897705,5.829999923706055,1.25,5.360000133514404,3.569999933242798,2.4700000286102295,4.880000114440918,1.378000020980835,1.628999948501587,2.25,3.049999952316284,2.1500000953674316,2.4200000762939453,,2.509999990463257,4.5289998054504395,1.5390000343322754,6.869999885559082,1.9199999570846558,,,2.140000104904175,
52,3.0250000953674316,3.111999988555908,8.8100004196167,3.311000108718872,2.9660000801086426,2.003999948501587,5.699999809265137,1.7200000286102295,6.791999816894531,3.759000062942505,1.4839999675750732,1.3389999866485596,,2.0199999809265137,5.650000095367432,1.2410000562667847,5.210000038146973,3.4100000858306885,2.4000000953674316,4.728000164031982,1.38100004196167,1.621000051498413,2.25,3.119999885559082,2.140000104904175,2.440000057220459,,2.5899999141693115,4.515999794006348,1.5269999504089355,6.6529998779296875,1.8799999952316284,,,2.1500000953674316,
53,3.075000047683716,3.118000030517578,9.119999885559082,3.321000099182129,2.9660000801086426,2.0409998893737793,5.839000225067139,1.7300000190734863,6.895999908447266,3.7829999923706055,1.5190000534057617,1.3200000524520874,,2.0299999713897705,5.800000190734863,1.2719999551773071,5.400000095367432,3.549999952316284,2.4600000381469727,4.840000152587891,1.3730000257492065,1.6449999809265137,2.240000009536743,3.069999933242798,2.1500000953674316,2.450000047683716,,2.559999942779541,4.526000022888184,1.5379999876022339,6.671000003814697,1.899999976158142,,,2.140000104904175,
54,3.0450000762939453,3.114000082015991,8.850000381469727,3.325000047683716,2.9670000076293945,2.01200008392334,5.756999969482422,1.690000057220459,6.684999942779541,3.696000099182129,1.5190000534057617,1.3200000524520874,,2.009999990463257,5.650000095367432,1.253000020980835,5.239999771118164,3.444000005722046,2.4000000953674316,4.689000129699707,1.378000020980835,1.6440000534057617,2.2699999809265137,3.049999952316284,2.1600000858306885,2.450000047683716,,2.609999895095825,4.421000003814697,1.49399995803833,6.449999809265137,1.909999966621399,,,2.1700000762939453,
55,2.934999942779541,3.115999937057495,8.720000267028809,3.3259999752044678,2.9660000801086426,1.9579999446868896,5.585999965667725,1.649999976158142,6.2170000076293945,3.4739999771118164,1.5069999694824219,1.2599999904632568,,2.0199999809265137,5.460000038146973,1.2100000381469727,5.130000114440918,3.380000114440918,2.3299999237060547,4.579999923706055,1.3899999856948853,1.5859999656677246,2.188999891281128,2.950000047683716,2.0999999046325684,2.3499999046325684,,2.509999990463257,3.9820001125335693,1.3769999742507935,6.0370001792907715,1.871000051498413,,,2.0999999046325684,
56,2.877000093460083,3.111999988555908,8.170000076293945,3.3359999656677246,2.9670000076293945,1.9290000200271606,5.449999809265137,1.5140000581741333,6.185999870300293,3.430999994277954,1.4509999752044678,1.2209999561309814,,1.899999976158142,5.159999847412109,1.187999963760376,4.730000019073486,3.1089999675750732,2.240000009536743,4.199999809265137,1.399999976158142,1.5130000114440918,2.0179998874664307,2.740000009536743,1.9739999771118164,2.2699999809265137,,2.369999885559082,3.864000082015991,1.3969999551773071,6.021999835968018,1.815000057220459,,,1.9739999771118164,
57,2.880000114440918,3.1070001125335693,8.489999771118164,3.322999954223633,2.9639999866485596,1.9199999570846558,5.442999839782715,1.5700000524520874,6.070000171661377,3.4210000038146973,1.4520000219345093,1.2899999618530273,,1.9600000381469727,5.40500020980835,1.187000036239624,4.920000076293945,3.2690000534057617,2.2899999618530273,4.349999904632568,1.371000051498413,1.5269999504089355,2.049999952316284,2.75,2.0,2.180000066757202,,2.390000104904175,3.9779999256134033,1.3700000047683716,5.922999858856201,1.7699999809265137,,,1.940000057220459,
58,2.7200000286102295,3.1010000705718994,8.0,3.302000045776367,2.9639999866485596,1.7999999523162842,5.179999828338623,1.5199999809265137,5.609000205993652,3.125999927520752,1.399999976158142,1.194000005722046,,1.8899999856948853,5.090000152587891,1.1380000114440918,4.590000152587891,3.069999933242798,2.1600000858306885,4.019999980926514,1.3660000562667847,1.4210000038146973,2.0399999618530273,2.7100000381469727,1.940000057220459,2.119999885559082,,2.359999895095825,3.6389999389648438,1.284000039100647,5.400000095367432,1.7899999618530273,,,1.9049999713897705,
59,2.5920000076293945,3.0980000495910645,7.489999771118164,3.2920000553131104,2.9639999866485596,1.7339999675750732,4.88700008392334,1.399999976158142,5.258999824523926,2.996000051498413,1.2940000295639038,1.1299999952316284,,1.7230000495910645,4.809999942779541,1.0679999589920044,4.300000190734863,2.9100000858306885,2.0399999618530273,3.759999990463257,1.3300000429153442,1.2730000019073486,1.940000057220459,2.4600000381469727,1.7999999523162842,1.9500000476837158,,2.188999891281128,3.4010000228881836,1.194000005722046,4.826000213623047,1.6339999437332153,,,1.7649999856948853,
60,2.4600000381469727,3.0880000591278076,7.9629998207092285,3.256999969482422,2.9649999141693115,1.690000057220459,4.550000190734863,1.440000057220459,5.229000091552734,3.0390000343322754,1.2359999418258667,1.1399999856948853,,1.7300000190734863,5.210000038146973,1.0199999809265137,4.610000133514404,3.0899999141693115,2.1600000858306885,4.039999961853027,1.3250000476837158,1.2899999618530273,1.909999966621399,2.440000057220459,1.909999966621399,1.909999966621399,,2.130000114440918,3.5230000019073486,1.2289999723434448,5.0,1.6299999952316284,,,1.7999999523162842,
61,2.4760000705718994,3.0910000801086426,7.300000190734863,3.234999895095825,2.9630000591278076,1.6929999589920044,4.573999881744385,1.2999999523162842,5.059000015258789,2.9649999141693115,1.2209999561309814,1.0199999809265137,,1.659000039100647,4.639999866485596,0.9900000095367432,4.03000020980835,2.8299999237060547,1.9800000190734863,3.940000057220459,1.3300000429153442,1.1699999570846558,1.9800000190734863,2.4200000762939453,1.7350000143051147,1.9500000476837158,,2.0799999237060547,3.5399999618530273,1.2130000591278076,4.9710001945495605,1.6699999570846558,,,1.7999999523162842,
62,2.4719998836517334,3.069000005722046,7.699999809265137,3.2249999046325684,2.9609999656677246,1.6859999895095825,4.616000175476074,1.440000057220459,4.940000057220459,2.9000000953674316,1.2419999837875366,1.1699999570846558,,1.819000005722046,4.949999809265137,0.9810000061988831,4.460000038146973,3.130000114440918,2.0899999141693115,3.6700000762939453,1.3029999732971191,1.1200000047683716,2.0250000953674316,2.5999999046325684,1.8899999856948853,2.0199999809265137,,2.2100000381469727,3.6600000858306885,1.159999966621399,5.119999885559082,1.753000020980835,,,1.899999976158142,
63,2.3610000610351562,3.052999973297119,7.646999835968018,3.200000047683716,2.9609999656677246,1.5750000476837158,4.349999904632568,1.3109999895095825,4.699999809265137,2.8499999046325684,1.1649999618530273,1.1150000095367432,,1.75,5.090000152587891,0.9240000247955322,4.289999961853027,3.0199999809265137,2.049999952316284,3.640000104904175,1.2960000038146973,1.0099999904632568,1.9800000190734863,2.505000114440918,1.840000033378601,2.0369999408721924,,2.0799999237060547,3.3589999675750732,1.1759999990463257,4.681000232696533,1.809999942779541,,,1.8530000448226929,
64,2.3350000381469727,3.0260000228881836,7.690000057220459,3.1419999599456787,2.9600000381469727,1.600000023841858,4.355000019073486,1.3600000143051147,4.980000019073486,2.989000082015991,1.1330000162124634,1.1100000143051147,,1.7899999618530273,4.940999984741211,0.9039999842643738,4.199999809265137,3.0,2.0299999713897705,3.680000066757202,1.2929999828338623,1.034999966621399,1.9700000286102295,2.4200000762939453,1.7300000190734863,1.9600000381469727,,2.2100000381469727,3.490999937057495,1.1799999475479126,4.906000137329102,1.746999979019165,,,1.850000023841858,
65,2.078000068664551,3.046999931335449,7.429999828338623,3.1019999980926514,2.9609999656677246,1.534000039100647,3.9210000038146973,1.2400000095367432,4.381999969482422,2.7660000324249268,0.9750000238418579,1.093999981880188,,1.7400000095367432,4.769999980926514,0.8550000190734863,4.119999885559082,2.8970000743865967,1.9800000190734863,3.5,1.3240000009536743,0.925000011920929,1.9780000448226929,2.559999942779541,1.843000054359436,1.9869999885559082,,2.200000047683716,3.2339999675750732,1.0579999685287476,4.2210001945495605,1.8559999465942383,,,1.8530000448226929,
66,2.2980000972747803,3.068000078201294,7.179999828338623,3.1459999084472656,2.9609999656677246,1.6890000104904175,4.099999904632568,1.3200000524520874,4.61899995803833,2.7850000858306885,1.0750000476837158,1.093000054359436,,1.75,4.699999809265137,0.9089999794960022,3.940000057220459,2.7100000381469727,1.9299999475479126,3.4100000858306885,1.3240000009536743,0.9679999947547913,1.8300000429153442,2.4189999103546143,1.7799999713897705,1.940000057220459,,2.130000114440918,3.4690001010894775,1.125,4.211999893188477,1.7450000047683716,,,1.75,
67,2.372999906539917,3.062000036239624,7.75,3.171999931335449,2.9630000591278076,1.7100000381469727,4.379000186920166,1.440000057220459,4.853000164031982,2.8940000534057617,1.11899995803833,1.159999966621399,,1.8200000524520874,5.099999904632568,0.9340000152587891,4.260000228881836,2.882999897003174,2.119999885559082,3.7200000286102295,1.3259999752044678,1.031000018119812,1.9700000286102295,2.7200000286102295,1.8799999952316284,2.0799999237060547,,2.359999895095825,3.684000015258789,1.1799999475479126,4.685999870300293,1.8660000562667847,,,1.899999976158142,
68,2.443000078201294,3.061000108718872,7.849999904632568,3.177999973297119,2.9630000591278076,1.774999976158142,4.489999771118164,1.4800000190734863,5.064000129699707,3.046999931335449,1.180999994277954,1.190000057220459,,1.8990000486373901,5.090000152587891,0.9779999852180481,4.440000057220459,3.0,2.059999942779541,3.799999952316284,1.3240000009536743,1.1019999980926514,2.009999990463257,2.700000047683716,1.8600000143051147,2.130000114440918,,2.4000000953674316,3.815000057220459,1.2200000286102295,4.795000076293945,1.8600000143051147,,,1.9600000381469727,
69,2.431999921798706,3.063999891281128,8.098999977111816,3.187999963760376,2.9630000591278076,1.7400000095367432,4.494999885559082,1.4479999542236328,5.017000198364258,2.992000102996826,1.159999966621399,1.2389999628067017,,1.9700000286102295,5.239999771118164,0.949999988079071,4.579999923706055,3.119999885559082,2.190000057220459,3.990000009536743,1.3450000286102295,1.062999963760376,2.009999990463257,2.759999990463257,1.9550000429153442,2.1700000762939453,,2.430000066757202,3.697000026702881,1.225000023841858,4.705999851226807,1.909999966621399,,,1.9500000476837158,
70,2.430000066757202,3.068000078201294,7.769999980926514,3.2109999656677246,2.9630000591278076,1.7649999856948853,4.460000038146973,1.3899999856948853,4.995999813079834,2.9519999027252197,1.1629999876022339,1.100000023841858,,1.847000002861023,4.989999771118164,0.9350000023841858,4.340000152587891,2.9600000381469727,2.0299999713897705,3.7899999618530273,1.3450000286102295,1.0019999742507935,1.9600000381469727,2.674999952316284,1.7999999523162842,2.0799999237060547,,2.359999895095825,3.5950000286102295,1.1710000038146973,4.698999881744385,1.8700000047683716,,,1.8700000047683716,
71,2.5199999809265137,3.072000026702881,8.0600004196167,3.2179999351501465,2.9630000591278076,1.8329999446868896,4.590000152587891,1.4800000190734863,5.323999881744385,3.180000066757202,1.1979999542236328,1.1699999570846558,,1.9299999475479126,5.230000019073486,0.9860000014305115,4.510000228881836,3.0999999046325684,2.119999885559082,3.9030001163482666,1.3519999980926514,1.0859999656677246,2.0399999618530273,2.75,1.8600000143051147,2.140000104904175,,2.450000047683716,3.671999931335449,1.2640000581741333,5.063000202178955,1.909999966621399,,,1.9500000476837158,
72,2.5320000648498535,3.068000078201294,7.989999771118164,3.2339999675750732,2.9670000076293945,1.8339999914169312,4.599999904632568,1.4800000190734863,5.3429999351501465,3.1050000190734863,1.1970000267028809,1.159999966621399,,1.8600000143051147,5.190000057220459,0.9900000095367432,4.440000057220459,3.049999952316284,2.140000104904175,3.859999895095825,1.347000002861023,1.1150000095367432,2.059999942779541,2.763000011444092,1.8799999952316284,2.1500000953674316,,2.5,3.755000114440918,1.2730000019073486,5.044000148773193,1.8700000047683716,,,1.9500000476837158,
73,2.499000072479248,3.062999963760376,7.769999980926514,3.2290000915527344,2.9619998931884766,1.812000036239624,4.53000020980835,1.4600000381469727,5.2789998054504395,3.0510001182556152,1.1829999685287476,1.1399999856948853,,1.8300000429153442,5.050000190734863,0.9739999771118164,4.239999771118164,2.950000047683716,2.0799999237060547,3.690000057220459,1.340999960899353,1.0729999542236328,1.9900000095367432,2.7100000381469727,1.840000033378601,2.0999999046325684,,2.450000047683716,3.73799991607666,1.2259999513626099,4.880000114440918,1.8300000429153442,,,1.899999976158142,
74,2.515000104904175,3.062999963760376,7.889999866485596,3.2230000495910645,2.9619998931884766,1.8250000476837158,4.584000110626221,1.4700000286102295,5.151000022888184,3.0239999294281006,1.1759999990463257,1.159000039100647,,1.8200000524520874,5.060999870300293,0.984000027179718,4.309999942779541,3.009999990463257,2.109999895095825,3.700000047683716,1.3459999561309814,1.0490000247955322,1.9800000190734863,2.6600000858306885,1.850000023841858,2.069999933242798,,2.369999885559082,3.822999954223633,1.2350000143051147,4.758999824523926,1.7999999523162842,,,1.850000023841858,
75,2.4579999446868896,3.062000036239624,7.849999904632568,3.2330000400543213,2.9630000591278076,1.7999999523162842,4.521999835968018,1.4500000476837158,5.310999870300293,3.122999906539917,1.1610000133514404,1.149999976158142,,1.8300000429153442,5.078999996185303,0.9639999866485596,4.25,2.9800000190734863,2.0999999046325684,3.640000104904175,1.312000036239624,1.0829999446868896,1.9800000190734863,2.609999895095825,1.8200000524520874,2.0399999618530273,,2.4100000858306885,3.934999942779541,1.2799999713897705,4.959000110626221,1.7899999618530273,,,1.8600000143051147,
76,2.5199999809265137,3.065999984741211,8.220000267028809,3.23799991607666,2.9679999351501465,1.8040000200271606,4.613999843597412,1.5199999809265137,5.377999782562256,3.0999999046325684,1.184000015258789,1.1610000133514404,,1.8700000047683716,5.349999904632568,0.9819999933242798,4.5,3.059999942779541,2.190000057220459,3.880000114440918,1.340999960899353,1.1050000190734863,2.0399999618530273,2.740000009536743,1.8899999856948853,2.0799999237060547,,2.490000009536743,3.9600000381469727,1.2680000066757202,4.89300012588501,1.850000023841858,,,1.9500000476837158,
77,2.559999942779541,3.069999933242798,8.239999771118164,3.236999988555908,2.9679999351501465,1.8179999589920044,4.619999885559082,1.5199999809265137,5.492000102996826,3.125999927520752,1.190000057220459,1.2100000381469727,,1.9299999475479126,5.329999923706055,0.9900000095367432,4.570000171661377,3.119999885559082,2.2100000381469727,3.9100000858306885,1.3459999561309814,1.1200000047683716,2.119999885559082,2.8299999237060547,1.9500000476837158,2.1549999713897705,,2.5399999618530273,4.01800012588501,1.2760000228881836,4.864999771118164,1.909999966621399,,,2.009999990463257,
78,2.5810000896453857,3.072000026702881,8.430000305175781,3.236999988555908,2.9630000591278076,1.8300000429153442,4.735000133514404,1.5099999904632568,5.619999885559082,3.1619999408721924,1.218000054359436,1.2000000476837158,,1.909999966621399,5.46999979019165,1.0169999599456787,4.730000019073486,3.180000066757202,2.2300000190734863,4.070000171661377,1.3459999561309814,1.1670000553131104,2.115000009536743,2.809999942779541,1.9299999475479126,2.1500000953674316,,2.5199999809265137,4.050000190734863,1.2979999780654907,4.952000141143799,1.8650000095367432,,,1.9600000381469727,
79,2.615999937057495,3.069999933242798,8.319999694824219,3.236999988555908,2.9690001010894775,1.8700000047683716,4.767000198364258,1.5199999809265137,5.906000137329102,3.255000114440918,1.1929999589920044,1.1399999856948853,,1.8700000047683716,5.400000095367432,1.0290000438690186,4.630000114440918,3.1649999618530273,2.2100000381469727,4.03000020980835,1.3559999465942383,1.1549999713897705,2.130000114440918,2.859999895095825,1.909999966621399,2.1500000953674316,,2.5299999713897705,4.228000164031982,1.3389999866485596,5.090000152587891,1.8300000429153442,,,2.0,
80,2.680000066757202,3.0799999237060547,8.640000343322754,3.253000020980835,2.9660000801086426,1.906000018119812,4.886000156402588,1.5700000524520874,5.947999954223633,3.2699999809265137,1.2100000381469727,1.2200000286102295,,1.9600000381469727,5.650000095367432,1.0509999990463257,4.800000190734863,3.259999990463257,2.25,4.110000133514404,1.3519999980926514,1.180999994277954,2.130000114440918,2.9200000762939453,1.9199999570846558,2.190000057220459,,2.5999999046325684,4.206999778747559,1.343999981880188,5.15500020980835,1.8839999437332153,,,2.0399999618530273,
81,2.693000078201294,3.0820000171661377,8.649999618530273,3.25,2.9660000801086426,1.9329999685287476,4.921999931335449,1.5199999809265137,5.880000114440918,3.25600004196167,1.2400000095367432,1.1929999589920044,,1.9299999475479126,5.699999809265137,1.0549999475479126,4.789999961853027,3.25,2.259999990463257,4.059999942779541,1.3589999675750732,1.1610000133514404,2.180000066757202,2.9000000953674316,1.9600000381469727,2.140000104904175,,2.609999895095825,4.176000118255615,1.3279999494552612,5.0920000076293945,1.8849999904632568,,,2.0399999618530273,
82,2.7899999618530273,3.0980000495910645,8.6899995803833,3.260999917984009,2.9670000076293945,1.9869999885559082,5.089000225067139,1.5199999809265137,5.9770002365112305,3.3389999866485596,1.2580000162124634,1.1929999589920044,,1.9500000476837158,5.739999771118164,1.0920000076293945,4.75,3.2190001010894775,2.25,4.010000228881836,1.3600000143051147,1.2300000190734863,2.180000066757202,2.890000104904175,1.940000057220459,2.140000104904175,,2.609999895095825,4.236999988555908,1.3489999771118164,5.179999828338623,1.8739999532699585,,,2.0399999618530273,
83,2.75,3.1050000190734863,8.800000190734863,3.2660000324249268,2.9670000076293945,1.9780000448226929,5.077000141143799,1.5499999523162842,5.901000022888184,3.25,1.2489999532699585,1.190000057220459,,1.9700000286102295,5.78000020980835,1.090000033378601,4.889999866485596,3.309999942779541,2.2899999618530273,4.150000095367432,1.3559999465942383,1.1859999895095825,2.372999906539917,2.950000047683716,1.940000057220459,2.1600000858306885,,2.6500000953674316,4.131999969482422,1.3309999704360962,5.104000091552734,1.8600000143051147,,,2.059999942779541,
84,2.7149999141693115,3.1059999465942383,8.699999809265137,3.26200008392334,2.9670000076293945,1.9199999570846558,5.010000228881836,1.5199999809265137,5.757999897003174,3.1679999828338623,1.2350000143051147,1.190000057220459,,1.940000057220459,5.730000019073486,1.0679999589920044,4.800000190734863,3.25,2.299999952316284,4.089000225067139,1.3530000448226929,1.1440000534057617,2.2300000190734863,2.9700000286102295,1.9800000190734863,2.200000047683716,,2.7899999618530273,4.057000160217285,1.2929999828338623,4.943999767303467,1.8700000047683716,,,2.0799999237060547,
85,2.678999900817871,3.109999895095825,8.489999771118164,3.256999969482422,2.9679999351501465,1.9199999570846558,4.927999973297119,1.5099999904632568,5.686999797821045,3.1500000953674316,1.246999979019165,1.2000000476837158,,1.9299999475479126,5.559999942779541,1.0479999780654907,4.71999979019165,3.2100000381469727,2.2300000190734863,4.039999961853027,1.3589999675750732,1.1299999952316284,2.125,2.9000000953674316,1.9249999523162842,2.1449999809265137,,2.700000047683716,3.9670000076293945,1.2799999713897705,4.900000095367432,1.8799999952316284,,,2.009999990463257,
86,2.697000026702881,3.1089999675750732,8.6899995803833,3.255000114440918,2.9649999141693115,1.9179999828338623,4.946000099182129,1.4900000095367432,5.729000091552734,3.1630001068115234,1.2599999904632568,1.2000000476837158,,1.9199999570846558,5.730000019073486,1.0529999732971191,4.829999923706055,3.2300000190734863,2.2799999713897705,4.079999923706055,1.3569999933242798,1.1699999570846558,2.1600000858306885,2.9800000190734863,1.9700000286102295,2.1500000953674316,,2.7750000953674316,4.078000068664551,1.2999999523162842,4.921000003814697,1.8880000114440918,,,2.0299999713897705,
87,2.6700000762939453,3.114000082015991,8.609999656677246,3.253999948501587,2.9679999351501465,1.9119999408721924,4.925000190734863,1.4819999933242798,5.791999816894531,3.2049999237060547,1.25,1.2200000286102295,,1.9500000476837158,5.659999847412109,1.0479999780654907,4.820000171661377,3.2300000190734863,2.257999897003174,4.079999923706055,1.3589999675750732,1.1460000276565552,2.2200000286102295,3.009999990463257,1.9500000476837158,2.1700000762939453,,2.808000087738037,4.140999794006348,1.3079999685287476,4.953000068664551,1.909999966621399,,,2.069999933242798,
88,2.7339999675750732,3.115999937057495,8.859999656677246,3.260999917984009,2.9649999141693115,1.9730000495910645,4.989999771118164,1.5499999523162842,5.964000225067139,3.2360000610351562,1.2640000581741333,1.2400000095367432,,1.9700000286102295,5.789999961853027,1.0800000429153442,4.96999979019165,3.3399999141693115,2.2899999618530273,4.269999980926514,1.3550000190734863,1.1660000085830688,2.2100000381469727,3.0399999618530273,1.9700000286102295,2.190000057220459,,2.8399999141693115,4.158999919891357,1.3279999494552612,4.9629998207092285,1.940000057220459,,,2.0899999141693115,
89,2.7339999675750732,3.128000020980835,8.670000076293945,3.2639999389648438,2.9679999351501465,1.965000033378601,4.960000038146973,1.5199999809265137,6.021999835968018,3.255000114440918,1.25,1.2100000381469727,,1.9700000286102295,5.670000076293945,1.0839999914169312,4.940000057220459,3.2909998893737793,2.2799999713897705,4.289999961853027,1.3619999885559082,1.1759999990463257,2.1989998817443848,3.0299999713897705,1.9500000476837158,2.1700000762939453,,2.7799999713897705,4.199999809265137,1.3320000171661377,5.10699987411499,1.8899999856948853,,,2.069999933242798,
90,2.7300000190734863,3.128000020980835,8.819999694824219,3.2660000324249268,2.9690001010894775,1.9550000429153442,4.96999979019165,1.5399999618530273,6.236999988555908,3.365999937057495,1.2400000095367432,1.2400000095367432,,2.0,5.789999961853027,1.0809999704360962,5.010000228881836,3.309999942779541,2.319999933242798,4.289999961853027,1.3619999885559082,1.2100000381469727,2.2100000381469727,3.109999895095825,1.9900000095367432,2.2200000286102295,,2.759999990463257,4.334000110626221,1.3899999856948853,5.260000228881836,1.9500000476837158,,,2.0999999046325684,
91,2.691999912261963,3.13100004196167,8.789999961853027,3.2720000743865967,2.9690001010894775,1.9199999570846558,4.925000190734863,1.5199999809265137,5.9670000076293945,3.2039999961853027,1.2389999628067017,1.2100000381469727,,1.9600000381469727,5.809999942779541,1.059999942779541,4.929999828338623,3.2699999809265137,2.299999952316284,4.329999923706055,1.3660000562667847,1.152999997138977,2.2100000381469727,3.119999885559082,1.9800000190734863,2.2100000381469727,,2.759999990463257,4.104000091552734,1.3300000429153442,5.068999767303467,1.909999966621399,,,2.0899999141693115,
92,2.674999952316284,3.140000104904175,8.670000076293945,3.2750000953674316,2.9690001010894775,1.9199999570846558,4.875999927520752,1.5199999809265137,5.978000164031982,3.190000057220459,1.2239999771118164,1.1699999570846558,,1.9299999475479126,5.739999771118164,1.0499999523162842,4.829999923706055,3.2300000190734863,2.25,4.230000019073486,1.3660000562667847,1.1369999647140503,2.200000047683716,3.0199999809265137,1.9199999570846558,2.2300000190734863,,2.690000057220459,4.041999816894531,1.3070000410079956,5.0,1.8799999952316284,,,2.059999942779541,
93,2.6989998817443848,3.1410000324249268,8.649999618530273,3.2709999084472656,2.9700000286102295,1.9259999990463257,4.920000076293945,1.5099999904632568,6.0980000495910645,3.247999906539917,1.2259999513626099,1.1799999475479126,,1.909999966621399,5.760000228881836,1.0640000104904175,4.849999904632568,3.200000047683716,2.259999990463257,4.21999979019165,1.3660000562667847,1.1640000343322754,2.180000066757202,2.9800000190734863,1.899999976158142,2.130000114440918,,2.700000047683716,4.184999942779541,1.3289999961853027,5.09499979019165,1.8600000143051147,,,2.0299999713897705,
94,2.7100000381469727,3.1419999599456787,8.720000267028809,3.2730000019073486,2.9670000076293945,1.930999994277954,4.9629998207092285,1.5199999809265137,6.135000228881836,3.2320001125335693,1.215999960899353,1.2100000381469727,,1.9500000476837158,5.849999904632568,1.065000057220459,4.900000095367432,3.240000009536743,2.2799999713897705,4.269999980926514,1.3630000352859497,1.1519999504089355,2.240000009536743,3.0799999237060547,1.9500000476837158,2.180000066757202,,2.799999952316284,4.1620001792907715,1.3270000219345093,5.089000225067139,1.909999966621399,,,2.0799999237060547,
95,2.7249999046325684,3.1410000324249268,8.720000267028809,3.2720000743865967,2.9670000076293945,1.9429999589920044,4.99399995803833,1.5,6.166999816894531,3.247999906539917,1.2139999866485596,1.190000057220459,,1.9299999475479126,5.880000114440918,1.065999984741211,4.869999885559082,3.180000066757202,2.2699999809265137,4.269999980926514,1.3580000400543213,1.152999997138977,2.2100000381469727,3.0799999237060547,1.940000057220459,2.1600000858306885,,2.799999952316284,4.2220001220703125,1.3300000429153442,5.066999912261963,1.8799999952316284,,,2.069999933242798,
96,2.742000102996826,3.1440000534057617,8.680000305175781,3.2639999389648438,2.9670000076293945,1.9500000476837158,5.044000148773193,1.5,6.269999980926514,3.25,1.222000002861023,1.190000057220459,,1.9299999475479126,5.889999866485596,1.0700000524520874,4.880000114440918,3.1500000953674316,2.259999990463257,4.260000228881836,1.3619999885559082,1.1679999828338623,2.200000047683716,3.0899999141693115,1.9199999570846558,2.1600000858306885,,2.799999952316284,4.28000020980835,1.3489999771118164,5.086999893188477,1.8700000047683716,,,2.059999942779541,
97,2.765000104904175,3.1489999294281006,8.779999732971191,3.2730000019073486,2.9700000286102295,1.9670000076293945,5.074999809265137,1.5099999904632568,6.3520002365112305,3.2780001163482666,1.2230000495910645,1.2000000476837158,,1.940000057220459,5.929999828338623,1.0880000591278076,4.96999979019165,3.2200000286102295,2.2899999618530273,4.389999866485596,1.3609999418258667,1.2000000476837158,2.190000057220459,3.0799999237060547,1.909999966621399,2.1700000762939453,,2.7899999618530273,4.330999851226807,1.375,5.172999858856201,1.8799999952316284,,,2.0299999713897705,
98,2.7660000324249268,3.1489999294281006,8.859999656677246,3.2730000019073486,2.9679999351501465,1.9700000286102295,5.119999885559082,1.5299999713897705,6.2170000076293945,3.2249999046325684,1.246000051498413,1.1990000009536743,,1.9900000095367432,6.010000228881836,1.0920000076293945,5.019999980926514,3.240000009536743,2.299999952316284,4.420000076293945,1.3559999465942383,1.1670000553131104,2.25,3.1700000762939453,1.9700000286102295,2.180000066757202,,2.9100000858306885,4.210000038146973,1.3359999656677246,5.01800012588501,1.940000057220459,,,2.0899999141693115,
99,2.765000104904175,3.1500000953674316,8.800000190734863,3.2669999599456787,2.9700000286102295,1.965000033378601,5.0970001220703125,1.5399999618530273,6.257999897003174,3.2780001163482666,1.2339999675750732,1.2200000286102295,,1.9700000286102295,6.0,1.0800000429153442,4.960000038146973,3.2200000286102295,2.299999952316284,4.289999961853027,1.3559999465942383,1.159999966621399,2.259999990463257,3.2200000286102295,2.0299999713897705,2.2100000381469727,,3.0399999618530273,4.284999847412109,1.3530000448226929,5.067999839782715,1.9700000286102295,,,2.130000114440918,
100,2.757999897003174,3.1589999198913574,8.670000076293945,3.2699999809265137,2.9700000286102295,1.9700000286102295,5.073999881744385,1.5299999713897705,6.245999813079834,3.25600004196167,1.2300000190734863,1.2400000095367432,,2.009999990463257,5.929999828338623,1.0700000524520874,4.829999923706055,3.1600000858306885,2.299999952316284,4.210000038146973,1.3609999418258667,1.1690000295639038,2.240000009536743,3.1700000762939453,2.009999990463257,2.190000057220459,,2.930000066757202,4.295000076293945,1.3450000286102295,5.039999961853027,1.9700000286102295,,,2.0899999141693115,
101,2.739000082015991,3.1579999923706055,8.760000228881836,3.2709999084472656,2.9700000286102295,1.9570000171661377,5.056000232696533,1.5099999904632568,6.230999946594238,3.2669999599456787,1.2300000190734863,1.2200000286102295,,1.9800000190734863,5.960000038146973,1.065000057220459,4.889999866485596,3.190000057220459,2.2799999713897705,4.21999979019165,1.3619999885559082,1.1770000457763672,2.180000066757202,3.059999942779541,1.9600000381469727,2.130000114440918,,2.9000000953674316,4.368000030517578,1.3489999771118164,5.0269999504089355,1.909999966621399,,,2.0399999618530273,
102,2.757999897003174,3.1600000858306885,8.880000114440918,3.2780001163482666,2.9709999561309814,1.9759999513626099,5.084000110626221,1.5190000534057617,6.420000076293945,3.328000068664551,1.2489999532699585,1.2300000190734863,,1.9910000562667847,6.050000190734863,1.0709999799728394,4.940000057220459,3.2200000286102295,2.309999942779541,4.300000190734863,1.3609999418258667,1.190999984741211,2.2100000381469727,3.119999885559082,1.9609999656677246,2.1500000953674316,,2.9600000381469727,4.613999843597412,1.3869999647140503,5.053999900817871,1.940000057220459,,,2.0799999237060547,
103,2.7730000019073486,3.1610000133514404,9.0,3.2750000953674316,2.9690001010894775,1.975000023841858,5.113999843597412,1.5399999618530273,6.473999977111816,3.365000009536743,1.24399995803833,1.2400000095367432,,2.0299999713897705,6.099999904632568,1.0829999446868896,5.090000152587891,3.2899999618530273,2.3499999046325684,4.46999979019165,1.3600000143051147,1.215999960899353,2.2799999713897705,3.2200000286102295,2.009999990463257,2.2300000190734863,,3.0299999713897705,4.764999866485596,1.4279999732971191,5.119999885559082,1.9600000381469727,,,2.130000114440918,
104,2.7699999809265137,3.1640000343322754,8.84000015258789,3.2750000953674316,2.9709999561309814,1.9609999656677246,5.1479997634887695,1.5199999809265137,6.48799991607666,3.3320000171661377,1.2619999647140503,1.2300000190734863,,1.9900000095367432,6.03000020980835,1.0759999752044678,5.0,3.2100000381469727,2.319999933242798,4.380000114440918,1.3600000143051147,1.2170000076293945,2.2699999809265137,3.2300000190734863,2.0,2.200000047683716,,2.9600000381469727,4.724999904632568,1.409000039100647,5.079999923706055,1.940000057220459,,,2.109999895095825,
105,2.76200008392334,3.1640000343322754,8.920000076293945,3.2750000953674316,2.9709999561309814,1.9500000476837158,5.114999771118164,1.5399999618530273,6.52400016784668,3.3310000896453857,1.2619999647140503,1.2200000286102295,,1.9900000095367432,6.130000114440918,1.0720000267028809,5.050000190734863,3.240000009536743,2.3499999046325684,4.440000057220459,1.3569999933242798,1.2239999771118164,2.2799999713897705,3.299999952316284,2.0199999809265137,2.2200000286102295,,2.9700000286102295,4.729000091552734,1.4079999923706055,5.071000099182129,1.940000057220459,,,2.109999895095825,
106,2.7300000190734863,3.1649999618530273,8.899999618530273,3.2839999198913574,2.9690001010894775,1.934999942779541,5.099999904632568,1.5399999618530273,6.531000137329102,3.299999952316284,1.2599999904632568,1.2289999723434448,,1.9700000286102295,6.059999942779541,1.0679999589920044,5.039999961853027,3.2300000190734863,2.319999933242798,4.480000019073486,1.3660000562667847,1.215999960899353,2.259999990463257,3.259999990463257,1.9800000190734863,2.200000047683716,,2.9600000381469727,4.675000190734863,1.3919999599456787,5.019999980926514,1.9299999475479126,,,2.109999895095825,
107,2.7669999599456787,3.1659998893737793,8.9399995803833,3.2880001068115234,2.9679999351501465,1.9559999704360962,5.130000114440918,1.5299999713897705,6.573999881744385,3.309000015258789,1.2630000114440918,1.2649999856948853,,1.99399995803833,6.090000152587891,1.0759999752044678,5.059999942779541,3.2200000286102295,2.319999933242798,4.489999771118164,1.3609999418258667,1.2230000495910645,2.2799999713897705,3.2790000438690186,1.9500000476837158,2.2200000286102295,,3.0,4.706999778747559,1.409000039100647,5.052999973297119,1.9299999475479126,,,2.119999885559082,
108,2.7990000247955322,3.1659998893737793,8.949999809265137,3.2899999618530273,2.9719998836517334,1.9900000095367432,5.177000045776367,1.5230000019073486,6.784999847412109,3.433000087738037,1.2799999713897705,1.2649999856948853,,2.0,6.138999938964844,1.0880000591278076,5.070000171661377,3.259999990463257,2.3499999046325684,4.5,1.3609999418258667,1.3020000457763672,2.259999990463257,3.2699999809265137,1.9700000286102295,2.25,,2.9800000190734863,4.78000020980835,1.4390000104904175,5.260000228881836,1.9299999475479126,,,2.069999933242798,
109,2.8299999237060547,3.1640000343322754,8.949999809265137,3.2929999828338623,2.9719998836517334,2.000999927520752,5.230000019073486,1.5700000524520874,6.74399995803833,3.496999979019165,1.2929999828338623,1.2400000095367432,,2.000999927520752,6.050000190734863,1.0959999561309814,5.130000114440918,3.25,2.3499999046325684,4.579999923706055,1.3680000305175781,1.3200000524520874,2.299999952316284,3.3399999141693115,2.0,2.25,,3.0,4.690999984741211,1.4789999723434448,5.670000076293945,1.9550000429153442,,,2.1500000953674316,
110,2.7869999408721924,3.140000104904175,9.069999694824219,3.2790000438690186,2.9549999237060547,1.9670000076293945,5.120999813079834,1.600000023841858,6.679999828338623,3.434000015258789,1.2580000162124634,1.2400000095367432,,2.049999952316284,6.039999961853027,1.065999984741211,5.230000019073486,3.3299999237060547,2.3499999046325684,4.659999847412109,1.3639999628067017,1.2899999618530273,2.2799999713897705,3.309999942779541,1.9900000095367432,2.2799999713897705,,2.9200000762939453,4.590000152587891,1.4700000286102295,5.710000038146973,1.9800000190734863,,,2.140000104904175,
111,2.7709999084472656,3.1410000324249268,9.039999961853027,3.2850000858306885,2.9570000171661377,1.9550000429153442,5.113999843597412,1.600000023841858,6.704999923706055,3.4079999923706055,1.2510000467300415,1.2200000286102295,,2.069000005722046,6.070000171661377,1.069000005722046,5.150000095367432,3.309999942779541,2.390000104904175,4.590000152587891,1.3969999551773071,1.274999976158142,2.2899999618530273,3.3499999046325684,1.9700000286102295,2.2899999618530273,,2.9700000286102295,4.627999782562256,1.4190000295639038,5.60099983215332,2.0299999713897705,,,2.1600000858306885,
112,2.805999994277954,3.138000011444092,9.0,3.2850000858306885,2.9549999237060547,1.9769999980926514,5.170000076293945,1.6299999952316284,6.868000030517578,3.447999954223633,1.2580000162124634,1.2610000371932983,,2.0899999141693115,6.090000152587891,1.0750000476837158,5.199999809265137,3.2799999713897705,2.4100000858306885,4.599999904632568,1.3919999599456787,1.2740000486373901,2.2899999618530273,3.3399999141693115,2.009999990463257,2.25,,2.950000047683716,4.767000198364258,1.4609999656677246,5.6539998054504395,2.0,,,2.109999895095825,
113,2.8480000495910645,3.13700008392334,8.949999809265137,3.2850000858306885,2.9570000171661377,2.0,5.239999771118164,1.6299999952316284,6.965000152587891,3.496000051498413,1.2769999504089355,1.2899999618530273,,2.0899999141693115,6.039999961853027,1.0959999561309814,5.179999828338623,3.2899999618530273,2.390000104904175,4.53000020980835,1.3980000019073486,1.3029999732971191,2.25,3.2899999618530273,2.0,2.2699999809265137,,2.8499999046325684,4.8420000076293945,1.4809999465942383,5.814000129699707,1.9900000095367432,,,2.119999885559082,
114,2.878000020980835,3.13700008392334,8.989999771118164,3.2860000133514404,2.9579999446868896,2.0139999389648438,5.303999900817871,1.6699999570846558,6.9720001220703125,3.5339999198913574,1.3049999475479126,1.2799999713897705,,2.069999933242798,6.059999942779541,1.1109999418258667,5.260000228881836,3.299999952316284,2.4000000953674316,4.650000095367432,1.350000023841858,1.3289999961853027,2.2899999618530273,3.369999885559082,2.065000057220459,2.3299999237060547,,2.9100000858306885,4.767000198364258,1.4910000562667847,5.88700008392334,2.0,,,2.1600000858306885,
115,2.872999906539917,3.134999990463257,8.871000289916992,3.2839999198913574,2.9590001106262207,1.9900000095367432,5.308000087738037,1.61899995803833,6.868000030517578,3.5399999618530273,1.312999963760376,1.25,,2.0,5.929999828338623,1.1160000562667847,5.179999828338623,3.2699999809265137,2.3499999046325684,4.579999923706055,1.3580000400543213,1.3320000171661377,2.259999990463257,3.2899999618530273,2.0,2.309999942779541,,2.819999933242798,4.785999774932861,1.4889999628067017,5.978000164031982,1.9700000286102295,,,2.1500000953674316,
116,2.9549999237060547,3.132999897003174,9.010000228881836,3.2839999198913574,2.9560000896453857,2.052999973297119,5.461999893188477,1.6399999856948853,6.989999771118164,3.5799999237060547,1.3480000495910645,1.2300000190734863,,2.0490000247955322,6.010000228881836,1.1460000276565552,5.260000228881836,3.3399999141693115,2.4000000953674316,4.710000038146973,1.3580000400543213,1.378999948501587,2.299999952316284,3.3519999980926514,2.069000005722046,2.309999942779541,,2.8299999237060547,4.849999904632568,1.5299999713897705,6.150000095367432,1.9800000190734863,,,2.1700000762939453,
117,2.9210000038146973,3.13100004196167,9.109999656677246,3.2839999198913574,2.9590001106262207,2.010999917984009,5.454999923706055,1.6299999952316284,7.01200008392334,3.6410000324249268,1.3229999542236328,1.2400000095367432,,2.0409998893737793,6.050000190734863,1.1380000114440918,5.349999904632568,3.390000104904175,2.4100000858306885,4.789999961853027,1.3569999933242798,1.3819999694824219,2.299999952316284,3.315000057220459,2.0299999713897705,2.319999933242798,,2.799999952316284,4.914000034332275,1.5460000038146973,6.284999847412109,1.9509999752044678,,,2.1600000858306885,
118,2.9100000858306885,3.13100004196167,9.09000015258789,3.2890000343322754,2.9590001106262207,2.0139999389648438,5.389999866485596,1.6100000143051147,7.03000020980835,3.630000114440918,1.3140000104904175,1.2599999904632568,,2.0399999618530273,6.099999904632568,1.1299999952316284,5.28000020980835,3.3499999046325684,2.4100000858306885,4.71999979019165,1.3530000448226929,1.3639999628067017,2.309999942779541,3.309999942779541,2.0399999618530273,2.3299999237060547,,2.880000114440918,4.869999885559082,1.5379999876022339,6.204999923706055,1.9800000190734863,,,2.1700000762939453,
119,2.8540000915527344,3.134000062942505,9.050000190734863,3.2929999828338623,2.9590001106262207,1.9780000448226929,5.309000015258789,1.6299999952316284,6.872000217437744,3.5280001163482666,1.2929999828338623,1.2699999809265137,,2.059999942779541,6.130000114440918,1.1100000143051147,5.21999979019165,3.309999942779541,2.4000000953674316,4.619999885559082,1.3580000400543213,1.2920000553131104,2.309999942779541,3.309999942779541,2.059999942779541,2.3299999237060547,,2.8299999237060547,4.800000190734863,1.4900000095367432,5.866000175476074,1.9889999628067017,,,2.1600000858306885,
120,2.802999973297119,3.13700008392334,8.65999984741211,3.2950000762939453,2.9600000381469727,1.9529999494552612,5.232999801635742,1.5700000524520874,6.681000232696533,3.434999942779541,1.274999976158142,1.190000057220459,,1.9950000047683716,5.910999774932861,1.090000033378601,4.980000019073486,3.1389999389648438,2.299999952316284,4.380000114440918,1.3600000143051147,1.277999997138977,2.2799999713897705,3.240000009536743,2.0399999618530273,2.200000047683716,,2.8299999237060547,4.6479997634887695,1.4490000009536743,5.699999809265137,1.9529999494552612,,,2.140000104904175,
121,2.806999921798706,3.140000104904175,8.699999809265137,3.299999952316284,2.9600000381469727,1.9500000476837158,5.228000164031982,1.559999942779541,6.640999794006348,3.3980000019073486,1.2619999647140503,1.2400000095367432,,2.0399999618530273,5.940000057220459,1.0880000591278076,5.010000228881836,3.1440000534057617,2.3499999046325684,4.409999847412109,1.3650000095367432,1.2680000066757202,2.2200000286102295,3.2200000286102295,2.0299999713897705,2.259999990463257,,2.7899999618530273,4.5929999351501465,1.4279999732971191,5.659999847412109,1.940000057220459,,,2.059999942779541,
122,2.8299999237060547,3.138000011444092,8.770000457763672,3.2990000247955322,2.9590001106262207,1.9630000591278076,5.251999855041504,1.600000023841858,6.896999835968018,3.4820001125335693,1.2660000324249268,1.2200000286102295,,2.0,5.989999771118164,1.0959999561309814,5.070000171661377,3.1510000228881836,2.359999895095825,4.519999980926514,1.3630000352859497,1.315000057220459,2.2200000286102295,3.1700000762939453,1.9800000190734863,2.2200000286102295,,2.8399999141693115,4.755000114440918,1.4739999771118164,5.910999774932861,1.9199999570846558,,,2.069999933242798,
123,2.890000104904175,3.138000011444092,8.9399995803833,3.299999952316284,2.9590001106262207,2.0250000953674316,5.28000020980835,1.6200000047683716,6.953999996185303,3.4779999256134033,1.2790000438690186,1.2450000047683716,,2.0,6.130000114440918,1.1039999723434448,5.159999847412109,3.2100000381469727,2.3889999389648438,4.610000133514404,1.3580000400543213,1.3300000429153442,2.299999952316284,3.2799999713897705,2.049999952316284,2.309999942779541,,2.930000066757202,4.684000015258789,1.4709999561309814,5.839000225067139,1.9700000286102295,,,2.1600000858306885,
124,2.859999895095825,3.140000104904175,8.84000015258789,3.2960000038146973,2.9570000171661377,2.0139999389648438,5.271999835968018,1.5989999771118164,6.85099983215332,3.4749999046325684,1.2719999551773071,1.2599999904632568,,2.0199999809265137,6.070000171661377,1.093000054359436,5.110000133514404,3.180000066757202,2.378999948501587,4.550000190734863,1.3669999837875366,1.3359999656677246,2.2899999618530273,3.299999952316284,2.0199999809265137,2.319999933242798,,2.9100000858306885,4.627999782562256,1.468000054359436,5.8480000495910645,2.0,,,2.1500000953674316,
125,2.884000062942505,3.1429998874664307,8.949999809265137,3.2980000972747803,2.9590001106262207,2.0339999198913574,5.289999961853027,1.5800000429153442,6.9670000076293945,3.4839999675750732,1.284999966621399,1.2300000190734863,,2.009999990463257,6.159999847412109,1.1019999980926514,5.150000095367432,3.180000066757202,2.3499999046325684,4.53000020980835,1.3600000143051147,1.3350000381469727,2.259999990463257,3.3299999237060547,2.0299999713897705,2.259999990463257,,2.940000057220459,4.644999980926514,1.4550000429153442,5.872000217437744,1.9900000095367432,,,2.119999885559082,
126,2.867000102996826,3.1419999599456787,8.949999809265137,3.302000045776367,2.9590001106262207,2.0139999389648438,5.28000020980835,1.590000033378601,6.9029998779296875,3.5,1.2799999713897705,1.2410000562667847,,2.0199999809265137,6.175000190734863,1.0950000286102295,5.150000095367432,3.200000047683716,2.380000114440918,4.559999942779541,1.3639999628067017,1.305999994277954,2.309999942779541,3.369999885559082,2.059999942779541,2.2799999713897705,,2.940999984741211,4.644999980926514,1.4630000591278076,5.875999927520752,2.0,,,2.1700000762939453,
127,2.8529999256134033,3.1429998874664307,8.869999885559082,3.302000045776367,2.9570000171661377,2.006999969482422,5.267000198364258,1.5800000429153442,6.954999923706055,3.489000082015991,1.2699999809265137,1.2400000095367432,,2.0,6.139999866485596,1.0959999561309814,5.099999904632568,3.130000114440918,2.3399999141693115,4.510000228881836,1.3609999418258667,1.3259999752044678,2.240000009536743,3.240000009536743,2.0399999618530273,2.2249999046325684,,2.930000066757202,4.659999847412109,1.468000054359436,5.7789998054504395,1.9500000476837158,,,2.130000114440918,
128,2.868000030517578,3.1440000534057617,8.960000038146973,3.305000066757202,2.9590001106262207,2.0250000953674316,5.284999847412109,1.6200000047683716,7.051000118255615,3.515000104904175,1.2920000553131104,1.2599999904632568,,2.0299999713897705,6.230000019073486,1.0959999561309814,5.119999885559082,3.1600000858306885,2.380000114440918,4.539999961853027,1.3630000352859497,1.3320000171661377,2.2699999809265137,3.3499999046325684,2.059999942779541,2.259999990463257,,2.990000009536743,4.74399995803833,1.4789999723434448,5.868000030517578,1.9889999628067017,,,2.1600000858306885,
129,2.825000047683716,3.1429998874664307,8.729999542236328,3.305000066757202,2.9570000171661377,2.00600004196167,5.224999904632568,1.5700000524520874,6.836999893188477,3.453000068664551,1.2920000553131104,1.25,,2.0,6.090000152587891,1.0809999704360962,4.980000019073486,3.069999933242798,2.3299999237060547,4.400000095367432,1.3639999628067017,1.2999999523162842,2.2200000286102295,3.25,2.049999952316284,2.244999885559082,,2.9100000858306885,4.625,1.4479999542236328,5.699999809265137,1.9299999475479126,,,2.0999999046325684,
130,2.8259999752044678,3.1419999599456787,8.8100004196167,3.303999900817871,2.9570000171661377,2.0230000019073486,5.199999809265137,1.590000033378601,6.714000225067139,3.486999988555908,1.277999997138977,1.2549999952316284,,2.009999990463257,6.119999885559082,1.0759999752044678,5.050000190734863,3.119999885559082,2.3399999141693115,4.460000038146973,1.3660000562667847,1.2940000295639038,2.2200000286102295,3.25,2.0399999618530273,2.259999990463257,,2.9100000858306885,4.64300012588501,1.4509999752044678,5.796000003814697,1.9500000476837158,,,2.0799999237060547,
131,2.815999984741211,3.1419999599456787,8.630000114440918,3.305000066757202,2.9600000381469727,2.0429999828338623,5.139999866485596,1.5700000524520874,6.671999931335449,3.4079999923706055,1.2610000371932983,1.25,,1.9900000095367432,6.0,1.069000005722046,4.960000038146973,3.0899999141693115,2.309999942779541,4.375,1.3609999418258667,1.253000020980835,2.240000009536743,3.2899999618530273,2.0399999618530273,2.2699999809265137,,2.930000066757202,4.63700008392334,1.4249999523162842,5.682000160217285,1.9520000219345093,,,2.069999933242798,
132,2.8480000495910645,3.1449999809265137,8.730999946594238,3.306999921798706,2.9579999446868896,2.1040000915527344,5.156000137329102,1.5809999704360962,6.810999870300293,3.4830000400543213,1.2589999437332153,1.25600004196167,,2.000999927520752,6.080999851226807,1.0800000429153442,5.039999961853027,3.0950000286102295,2.3399999141693115,4.460000038146973,1.371999979019165,1.274999976158142,2.2200000286102295,3.2899999618530273,2.059999942779541,2.2799999713897705,,2.930000066757202,4.681000232696533,1.4579999446868896,5.822000026702881,1.940000057220459,,,2.109999895095825,
133,2.8350000381469727,3.1489999294281006,8.802000045776367,3.309000015258789,2.9579999446868896,2.0789999961853027,5.170000076293945,1.5709999799728394,6.9029998779296875,3.4639999866485596,1.2649999856948853,1.2489999532699585,,1.9700000286102295,6.139999866485596,1.0779999494552612,5.070000171661377,3.119999885559082,2.3399999141693115,4.5,1.3700000047683716,1.2719999551773071,2.240000009536743,3.299999952316284,2.0399999618530273,2.259999990463257,,2.9100000858306885,4.716000080108643,1.4600000381469727,5.796000003814697,1.940000057220459,,,2.0999999046325684,
134,2.872999906539917,3.1440000534057617,8.819999694824219,3.308000087738037,2.9579999446868896,2.0999999046325684,5.229000091552734,1.600000023841858,6.99399995803833,3.5269999504089355,1.2890000343322754,1.25,,1.9900000095367432,6.199999809265137,1.0880000591278076,5.079999923706055,3.1500000953674316,2.3489999771118164,4.46999979019165,1.371999979019165,1.3049999475479126,2.259000062942505,3.309000015258789,2.0299999713897705,2.259999990463257,,2.9100000858306885,4.697999954223633,1.4730000495910645,5.933000087738037,1.909999966621399,,,2.119999885559082,
135,2.8889999389648438,3.1419999599456787,8.890000343322754,3.306999921798706,2.9600000381469727,2.121000051498413,5.2729997634887695,1.6100000143051147,6.96999979019165,3.5280001163482666,1.2910000085830688,1.2899999618530273,,2.0199999809265137,6.230000019073486,1.100000023841858,5.119999885559082,3.140000104904175,2.359999895095825,4.480000019073486,1.378000020980835,1.2910000085830688,2.2950000762939453,3.3299999237060547,2.0799999237060547,2.309999942779541,,2.9700000286102295,4.747000217437744,1.4800000190734863,5.923999786376953,1.9299999475479126,,,2.1449999809265137,
136,2.9100000858306885,3.1440000534057617,8.960000038146973,3.311000108718872,2.9600000381469727,2.131999969482422,5.27400016784668,1.628000020980835,7.089000225067139,3.5439999103546143,1.284000039100647,1.284000039100647,,2.015000104904175,6.239999771118164,1.1080000400543213,5.110000133514404,3.1500000953674316,2.359999895095825,4.489999771118164,1.3799999952316284,1.3270000219345093,2.25,3.3399999141693115,2.0799999237060547,2.305000066757202,,2.9800000190734863,4.7170000076293945,1.4739999771118164,5.994999885559082,1.934999942779541,,,2.1500000953674316,
137,2.9260001182556152,3.1440000534057617,8.930000305175781,3.311000108718872,2.9600000381469727,2.1510000228881836,5.315999984741211,1.5959999561309814,7.066999912261963,3.5290000438690186,1.2979999780654907,1.309999942779541,,2.000999927520752,6.281000137329102,1.1130000352859497,5.090000152587891,3.111999988555908,2.4200000762939453,4.46999979019165,1.371999979019165,1.3029999732971191,2.2920000553131104,3.369999885559082,2.1600000858306885,2.319999933242798,,2.9690001010894775,4.709000110626221,1.4769999980926514,5.913000106811523,1.9119999408721924,,,2.1500000953674316,
138,2.9100000858306885,3.1429998874664307,8.880000114440918,3.312000036239624,2.9579999446868896,2.140000104904175,5.315000057220459,1.5850000381469727,7.034999847412109,3.4670000076293945,1.2970000505447388,1.2999999523162842,,1.9809999465942383,6.239999771118164,1.1130000352859497,5.090000152587891,3.0810000896453857,2.359999895095825,4.414999961853027,1.371000051498413,1.2549999952316284,2.2899999618530273,3.359999895095825,2.140000104904175,2.2899999618530273,,2.990999937057495,4.699999809265137,1.4420000314712524,5.78000020980835,1.9199999570846558,,,2.140000104904175,
139,2.867000102996826,3.1429998874664307,8.890000343322754,3.312000036239624,2.9579999446868896,2.0980000495910645,5.300000190734863,1.6200000047683716,7.118000030517578,3.4730000495910645,1.2970000505447388,1.340000033378601,,1.9930000305175781,6.28000020980835,1.0770000219345093,5.074999809265137,3.0899999141693115,2.380000114440918,4.447000026702881,1.3660000562667847,1.2589999437332153,2.2699999809265137,3.3499999046325684,2.1500000953674316,2.2899999618530273,,2.9800000190734863,4.803999900817871,1.4630000591278076,5.806000232696533,1.909999966621399,,,2.130000114440918,
140,2.828000068664551,3.1449999809265137,8.869999885559082,3.315000057220459,2.9600000381469727,2.0810000896453857,5.214000225067139,1.593000054359436,7.0269999504089355,3.4639999866485596,1.2910000085830688,1.3489999771118164,,1.975000023841858,6.340000152587891,1.0520000457763672,5.048999786376953,3.0390000343322754,2.380000114440918,4.389999866485596,1.3630000352859497,1.253999948501587,2.243000030517578,3.377000093460083,2.1700000762939453,2.259999990463257,,2.990000009536743,4.74399995803833,1.4490000009536743,5.741000175476074,1.871999979019165,,,2.119999885559082,
141,2.8440001010894775,3.1459999084472656,8.979000091552734,3.319000005722046,2.9600000381469727,2.0920000076293945,5.214000225067139,1.6100000143051147,6.986000061035156,3.494999885559082,1.3009999990463257,1.340000033378601,,2.0,6.389999866485596,1.0570000410079956,5.070000171661377,3.0999999046325684,2.380000114440918,4.448999881744385,1.371999979019165,1.2589999437332153,2.2899999618530273,3.4000000953674316,2.1649999618530273,2.299999952316284,,3.0,4.7729997634887695,1.4600000381469727,5.826000213623047,1.9199999570846558,,,2.1500000953674316,
142,2.8440001010894775,3.1470000743865967,8.91100025177002,3.316999912261963,2.9600000381469727,2.0929999351501465,5.22599983215332,1.5989999771118164,6.986000061035156,3.4690001010894775,1.315999984741211,1.309999942779541,2.5,1.9889999628067017,6.269999980926514,1.0549999475479126,5.039999961853027,3.119999885559082,2.380000114440918,4.389999866485596,1.3639999628067017,1.2799999713897705,2.299999952316284,3.390000104904175,2.180000066757202,2.309999942779541,2.498929977416992,3.0199999809265137,4.783999919891357,1.468000054359436,5.811999797821045,1.9299999475479126,2.4914801120758057,2.495759963989258,2.1500000953674316,
143,2.875999927520752,3.1459999084472656,9.050000190734863,3.313999891281128,2.9579999446868896,2.119999885559082,5.2820000648498535,1.6100000143051147,7.103000164031982,3.559000015258789,1.3270000219345093,1.3259999752044678,2.5199999809265137,2.0160000324249268,6.389999866485596,1.0679999589920044,5.130000114440918,3.1700000762939453,2.4000000953674316,4.449999809265137,1.3769999742507935,1.281000018119812,2.299999952316284,3.369999885559082,2.1500000953674316,2.3299999237060547,2.500999927520752,3.0,4.921999931335449,1.49399995803833,5.8480000495910645,1.9320000410079956,2.5450000762939453,2.5399999618530273,2.1600000858306885,
144,2.871999979019165,3.1480000019073486,8.989999771118164,3.313999891281128,2.9600000381469727,2.0959999561309814,5.28000020980835,1.600000023841858,7.109000205993652,3.5280001163482666,1.3240000009536743,1.309999942779541,2.50600004196167,2.009999990463257,6.309999942779541,1.0720000267028809,5.159999847412109,3.1500000953674316,2.380000114440918,4.510000228881836,1.3639999628067017,1.2640000581741333,2.299999952316284,3.378999948501587,2.128999948501587,2.3310000896453857,2.503000020980835,3.049999952316284,4.877999782562256,1.4910000562667847,5.914000034332275,1.9459999799728394,2.51200008392334,2.549999952316284,2.1600000858306885,
145,2.9000000953674316,3.1459999084472656,9.050999641418457,3.319000005722046,2.9600000381469727,2.115999937057495,5.285999774932861,1.6200000047683716,7.053999900817871,3.5269999504089355,1.3359999656677246,1.2979999780654907,2.5199999809265137,2.0,6.328000068664551,1.0759999752044678,5.170000076293945,3.1989998817443848,2.4000000953674316,4.510000228881836,1.3700000047683716,1.277999997138977,2.309000015258789,3.368000030517578,2.114000082015991,2.3340001106262207,2.509000062942505,3.0390000343322754,4.9019999504089355,1.4950000047683716,5.839000225067139,1.940000057220459,2.5299999713897705,2.5299999713897705,2.1540000438690186,
146,2.871999979019165,3.1459999084472656,9.043999671936035,3.322000026702881,2.9590001106262207,2.109999895095825,5.281000137329102,1.6150000095367432,7.084000110626221,3.5320000648498535,1.3279999494552612,1.2869999408721924,2.5179998874664307,1.9900000095367432,6.311999797821045,1.0740000009536743,5.210999965667725,3.187000036239624,2.3910000324249268,4.526000022888184,1.3650000095367432,1.281000018119812,2.312000036239624,3.38100004196167,2.134000062942505,2.3320000171661377,2.507999897003174,3.0889999866485596,4.952000141143799,1.4950000047683716,5.808000087738037,1.9270000457763672,2.5309998989105225,2.559999942779541,2.1649999618530273,
147,2.9149999618530273,3.1500000953674316,9.126999855041504,3.319000005722046,2.9609999656677246,2.1559998989105225,5.303999900817871,1.625,7.333000183105469,3.5899999141693115,1.3320000171661377,1.2999999523162842,2.555000066757202,1.9880000352859497,6.482999801635742,1.0820000171661377,5.224999904632568,3.1640000343322754,2.4000000953674316,4.526000022888184,1.3760000467300415,1.2999999523162842,2.315000057220459,3.4100000858306885,2.1530001163482666,2.365999937057495,2.509999990463257,3.138000011444092,5.0,1.5069999694824219,5.863999843597412,1.9290000200271606,2.5759999752044678,2.5920000076293945,2.177999973297119,
148,2.924999952316284,3.1500000953674316,9.045999526977539,3.322999954223633,2.9590001106262207,2.1500000953674316,5.353000164031982,1.6200000047683716,7.308000087738037,3.5759999752044678,1.340999960899353,1.2999999523162842,2.558000087738037,1.9809999465942383,6.361000061035156,1.0800000429153442,5.182000160217285,3.1549999713897705,2.3889999389648438,4.5289998054504395,1.3760000467300415,1.284000039100647,2.311000108718872,3.4260001182556152,2.1549999713897705,2.3499999046325684,2.505000114440918,3.0880000591278076,5.01800012588501,1.5160000324249268,5.979000091552734,1.9010000228881836,2.575000047683716,2.5840001106262207,2.1619999408721924,
149,2.9119999408721924,3.1519999504089355,9.04800033569336,3.322999954223633,2.9609999656677246,2.1440000534057617,5.341000080108643,1.6239999532699585,7.331999778747559,3.571000099182129,1.3559999465942383,1.2899999618530273,2.5510001182556152,1.9739999771118164,6.363999843597412,1.0809999704360962,5.209000110626221,3.178999900817871,2.4000000953674316,4.552999973297119,1.3730000257492065,1.309000015258789,2.315999984741211,3.4049999713897705,2.140000104904175,2.3469998836517334,2.509999990463257,3.066999912261963,4.984000205993652,1.5110000371932983,5.943999767303467,1.9019999504089355,2.575000047683716,2.611999988555908,2.1630001068115234,
150,2.8910000324249268,3.1519999504089355,8.972999572753906,3.3320000171661377,2.9609999656677246,2.11899995803833,5.343999862670898,1.6349999904632568,7.228000164031982,3.5269999504089355,1.3339999914169312,1.3109999895095825,2.5260000228881836,1.9730000495910645,6.252999782562256,1.0789999961853027,5.208000183105469,3.177999973297119,2.3919999599456787,4.550000190734863,1.3700000047683716,1.2929999828338623,2.316999912261963,3.440000057220459,2.1449999809265137,2.359999895095825,2.51200008392334,3.0899999141693115,4.960000038146973,1.4989999532699585,5.925000190734863,1.9079999923706055,2.5399999618530273,2.572999954223633,2.1610000133514404,
151,2.869999885559082,3.1510000228881836,8.920000076293945,3.3340001106262207,2.9609999656677246,2.121000051498413,5.300000190734863,1.6139999628067017,7.21999979019165,3.5199999809265137,1.3229999542236328,1.2879999876022339,2.5250000953674316,1.9620000123977661,6.210000038146973,1.0750000476837158,5.1479997634887695,3.1549999713897705,2.372999906539917,4.506999969482422,1.3799999952316284,1.2890000343322754,2.2829999923706055,3.3570001125335693,2.121000051498413,2.3369998931884766,2.505000114440918,3.01200008392334,5.01800012588501,1.4980000257492065,5.828000068664551,1.8980000019073486,2.5450000762939453,2.572000026702881,2.1410000324249268,
152,2.8959999084472656,3.1530001163482666,8.946000099182129,3.3340001106262207,2.9609999656677246,2.114000082015991,5.3420000076293945,1.6109999418258667,7.2829999923706055,3.5329999923706055,1.3309999704360962,1.3140000104904175,2.5199999809265137,1.9889999628067017,6.2779998779296875,1.0750000476837158,5.1479997634887695,3.132999897003174,2.4000000953674316,4.506999969482422,1.378999948501587,1.2920000553131104,2.2730000019073486,3.4100000858306885,2.140000104904175,2.3350000381469727,2.502000093460083,3.0320000648498535,5.061999797821045,1.50600004196167,5.85099983215332,1.9149999618530273,2.559000015258789,2.571000099182129,2.1389999389648438,
153,2.8980000019073486,3.1519999504089355,8.897000312805176,3.3359999656677246,2.9609999656677246,2.117000102996826,5.315000057220459,1.6160000562667847,7.23199987411499,3.561000108718872,1.3450000286102295,1.2990000247955322,2.5269999504089355,1.9880000352859497,6.201000213623047,1.0729999542236328,5.1529998779296875,3.127000093460083,2.364000082015991,4.502999782562256,1.3760000467300415,1.2990000247955322,2.2909998893737793,3.3889999389648438,2.1500000953674316,2.3399999141693115,2.513000011444092,3.0250000953674316,5.002999782562256,1.5019999742507935,5.940999984741211,1.9199999570846558,2.558000087738037,2.556999921798706,2.1519999504089355,
154,2.9070000648498535,3.1540000438690186,9.003000259399414,3.3380000591278076,2.9590001106262207,2.140000104904175,5.331999778747559,1.6390000581741333,7.294000148773193,3.569999933242798,1.347000002861023,1.3040000200271606,2.5420000553131104,1.9930000305175781,6.294000148773193,1.0800000429153442,5.24399995803833,3.1689999103546143,2.4049999713897705,4.572999954223633,1.3730000257492065,1.2949999570846558,2.2990000247955322,3.4000000953674316,2.1630001068115234,2.3550000190734863,2.51200008392334,3.0169999599456787,5.03000020980835,1.5149999856948853,5.943999767303467,1.9129999876022339,2.5789999961853027,2.5850000381469727,2.1540000438690186,
155,2.9189999103546143,3.1559998989105225,8.946999549865723,3.3399999141693115,2.9609999656677246,2.1449999809265137,5.314000129699707,1.6269999742507935,7.135000228881836,3.497999906539917,1.347000002861023,1.2990000247955322,2.546999931335449,1.9609999656677246,6.296000003814697,1.0839999914169312,5.23799991607666,3.128999948501587,2.368000030517578,4.590000152587891,1.38100004196167,1.2769999504089355,2.296999931335449,3.3919999599456787,2.135999917984009,2.321000099182129,2.5220000743865967,3.0220000743865967,4.920000076293945,1.4809999465942383,5.784999847412109,1.8860000371932983,2.5209999084472656,2.565000057220459,2.1449999809265137,
156,2.9089999198913574,3.1600000858306885,9.0600004196167,3.3380000591278076,2.9600000381469727,2.1500000953674316,5.293000221252441,1.5829999446868896,7.114999771118164,3.4760000705718994,1.340000033378601,1.2860000133514404,2.5399999618530273,1.934000015258789,6.408999919891357,1.0789999961853027,5.236999988555908,3.134999990463257,2.38100004196167,4.573999881744385,1.375,1.2710000276565552,2.302000045776367,3.382999897003174,2.13700008392334,2.2709999084472656,2.5299999713897705,3.006999969482422,4.980000019073486,1.4800000190734863,5.638000011444092,1.850000023841858,2.5169999599456787,2.5490000247955322,2.1510000228881836,
157,2.9170000553131104,3.1619999408721924,9.14799976348877,3.3420000076293945,2.9590001106262207,2.1600000858306885,5.302999973297119,1.6080000400543213,7.254000186920166,3.5429999828338623,1.3459999561309814,1.2999999523162842,2.555999994277954,1.9670000076293945,6.48799991607666,1.0870000123977661,5.2870001792907715,3.1530001163482666,2.4179999828338623,4.642000198364258,1.3849999904632568,1.2899999618530273,2.3499999046325684,3.444000005722046,2.1579999923706055,2.3410000801086426,2.5299999713897705,3.0829999446868896,5.052000045776367,1.5019999742507935,5.769000053405762,1.8890000581741333,2.559999942779541,2.5810000896453857,2.190000057220459,
158,2.9079999923706055,3.1579999923706055,9.156999588012695,3.3420000076293945,2.9609999656677246,2.1679999828338623,5.294000148773193,1.621999979019165,7.290999889373779,3.552999973297119,1.340999960899353,1.3220000267028809,2.556999921798706,1.9700000286102295,6.501999855041504,1.0880000591278076,5.296999931335449,3.1549999713897705,2.4230000972747803,4.646999835968018,1.378000020980835,1.2970000505447388,2.3410000801086426,3.4200000762939453,2.1630001068115234,2.3289999961853027,2.5230000019073486,3.0799999237060547,5.122000217437744,1.5110000371932983,5.741000175476074,1.8969999551773071,2.565999984741211,2.5940001010894775,2.1760001182556152,
159,2.9210000038146973,3.1579999923706055,9.20199966430664,3.3450000286102295,2.9600000381469727,2.1610000133514404,5.322000026702881,1.61899995803833,7.35099983215332,3.553999900817871,1.347000002861023,1.3259999752044678,2.562000036239624,1.9889999628067017,6.5320000648498535,1.093000054359436,5.335999965667725,3.181999921798706,2.440000057220459,4.710999965667725,1.378999948501587,1.274999976158142,2.359999895095825,3.4820001125335693,2.2009999752044678,2.3489999771118164,2.510999917984009,3.1050000190734863,5.236000061035156,1.5240000486373901,5.783999919891357,1.8990000486373901,2.575000047683716,2.6070001125335693,2.200000047683716,
160,2.9040000438690186,3.1600000858306885,9.20300006866455,3.3459999561309814,2.9619998931884766,2.130000114440918,5.308000087738037,1.6299999952316284,7.261000156402588,3.5510001182556152,1.350000023841858,1.3300000429153442,2.5350000858306885,1.9809999465942383,6.563000202178955,1.0920000076293945,5.290999889373779,3.1500000953674316,2.430000066757202,4.677000045776367,1.3760000467300415,1.2869999408721924,2.3359999656677246,3.443000078201294,2.1689999103546143,2.309000015258789,2.5199999809265137,3.0769999027252197,5.151000022888184,1.5199999809265137,5.699999809265137,1.8949999809265137,2.5510001182556152,2.6019999980926514,2.1700000762939453,
161,2.9100000858306885,3.1619999408721924,9.335000038146973,3.3489999771118164,2.9619998931884766,2.138000011444092,5.340000152587891,1.6360000371932983,7.349999904632568,3.619999885559082,1.3480000495910645,1.3109999895095825,2.5409998893737793,2.000999927520752,6.579999923706055,1.090999960899353,5.35099983215332,3.2179999351501465,2.450000047683716,4.741000175476074,1.378999948501587,1.2999999523162842,2.377000093460083,3.4690001010894775,2.188999891281128,2.328000068664551,2.5190000534057617,3.1410000324249268,5.2129998207092285,1.5440000295639038,5.901000022888184,1.8910000324249268,2.609999895095825,2.6029999256134033,2.2130000591278076,
162,2.9200000762939453,3.1610000133514404,9.348999977111816,3.3480000495910645,2.9619998931884766,2.122999906539917,5.340000152587891,1.6369999647140503,7.334000110626221,3.694000005722046,1.3539999723434448,1.319000005722046,2.5390000343322754,2.003000020980835,6.553999900817871,1.0859999656677246,5.381999969482422,3.2669999599456787,2.4679999351501465,4.789000034332275,1.3799999952316284,1.312999963760376,2.384999990463257,3.4049999713897705,2.180999994277954,2.3420000076293945,2.5190000534057617,3.0829999446868896,5.270999908447266,1.565999984741211,5.955999851226807,1.909999966621399,2.634000062942505,2.622999906539917,2.2149999141693115,
163,2.871999979019165,3.1619999408721924,9.387999534606934,3.3519999980926514,2.9609999656677246,2.0859999656677246,5.249000072479248,1.6679999828338623,7.232999801635742,3.6519999504089355,1.3200000524520874,1.312000036239624,2.503000020980835,2.0320000648498535,6.543000221252441,1.0740000009536743,5.383999824523926,3.2909998893737793,2.4839999675750732,4.802999973297119,1.371999979019165,1.319000005722046,2.378999948501587,3.444000005722046,2.187999963760376,2.365000009536743,2.5280001163482666,3.0850000381469727,5.165999889373779,1.5499999523162842,6.025000095367432,1.934999942779541,2.615999937057495,2.5999999046325684,2.2170000076293945,
164,2.875999927520752,3.1670000553131104,9.456999778747559,3.3450000286102295,2.9619998931884766,2.0989999771118164,5.23799991607666,1.6649999618530273,7.291999816894531,3.63700008392334,1.3320000171661377,1.3380000591278076,2.509000062942505,2.065000057220459,6.63700008392334,1.069000005722046,5.3979997634887695,3.2990000247955322,2.4800000190734863,4.7820000648498535,1.371999979019165,1.3209999799728394,2.4079999923706055,3.4809999465942383,2.2039999961853027,2.4159998893737793,2.5320000648498535,3.0759999752044678,5.178999900817871,1.5479999780654907,6.001999855041504,1.9639999866485596,2.624000072479248,2.6530001163482666,2.246000051498413,
165,2.8510000705718994,3.1679999828338623,9.524999618530273,3.3440001010894775,2.9619998931884766,2.0989999771118164,5.203000068664551,1.694000005722046,7.428999900817871,3.680999994277954,1.3209999799728394,1.340000033378601,2.496000051498413,2.069999933242798,6.711999893188477,1.062999963760376,5.448999881744385,3.303999900817871,2.5199999809265137,4.8429999351501465,1.3730000257492065,1.3320000171661377,2.436000108718872,3.556999921798706,2.2190001010894775,2.427999973297119,2.5360000133514404,3.127000093460083,5.21999979019165,1.5579999685287476,6.039999961853027,1.9919999837875366,2.6510000228881836,2.6500000953674316,2.25,
166,2.8970000743865967,3.1730000972747803,9.529999732971191,3.3420000076293945,2.9619998931884766,2.128999948501587,5.293000221252441,1.6759999990463257,7.410999774932861,3.6470000743865967,1.3339999914169312,1.3480000495910645,2.5239999294281006,2.068000078201294,6.703999996185303,1.0859999656677246,5.432000160217285,3.302000045776367,2.51200008392334,4.822000026702881,1.3609999418258667,1.3209999799728394,2.430000066757202,3.5450000762939453,2.2190001010894775,2.4040000438690186,2.5239999294281006,3.0999999046325684,5.236000061035156,1.5549999475479126,5.952000141143799,1.9859999418258667,2.6429998874664307,2.6470000743865967,2.2639999389648438,
167,2.940000057220459,3.1730000972747803,9.5,3.3420000076293945,2.9600000381469727,2.1730000972747803,5.369999885559082,1.6690000295639038,7.513000011444092,3.687999963760376,1.3480000495910645,1.3559999465942383,2.5789999961853027,2.0880000591278076,6.744999885559082,1.100000023841858,5.453999996185303,3.2920000553131104,2.5199999809265137,4.824999809265137,1.3639999628067017,1.3289999961853027,2.430000066757202,3.549999952316284,2.2279999256134033,2.4159998893737793,2.5309998989105225,3.1429998874664307,5.302999973297119,1.5700000524520874,5.9629998207092285,1.975000023841858,2.6600000858306885,2.6540000438690186,2.2639999389648438,
168,2.933000087738037,3.177000045776367,9.449999809265137,3.3420000076293945,2.9600000381469727,2.13700008392334,5.389999866485596,1.6729999780654907,7.544000148773193,3.7100000381469727,1.3550000190734863,1.3459999561309814,2.5510001182556152,2.069999933242798,6.747000217437744,1.097000002861023,5.401000022888184,3.259000062942505,2.503000020980835,4.751999855041504,1.371000051498413,1.315999984741211,2.428999900817871,3.5350000858306885,2.2179999351501465,2.4030001163482666,2.5360000133514404,3.118000030517578,5.210999965667725,1.5679999589920044,5.974999904632568,1.9700000286102295,2.6710000038146973,2.6600000858306885,2.257999897003174,
169,2.927000045776367,3.178999900817871,9.39799976348877,3.3459999561309814,2.9619998931884766,2.128999948501587,5.382999897003174,1.6419999599456787,7.526000022888184,3.628999948501587,1.350000023841858,1.3240000009536743,2.5420000553131104,2.0480000972747803,6.686999797821045,1.1039999723434448,5.3429999351501465,3.2300000190734863,2.4670000076293945,4.736999988555908,1.3639999628067017,1.309999942779541,2.4070000648498535,3.5139999389648438,2.194000005722046,2.375999927520752,2.5350000858306885,3.124000072479248,5.113999843597412,1.5520000457763672,5.916999816894531,1.965000033378601,2.6459999084472656,2.5999999046325684,2.25,
170,2.9670000076293945,3.181999921798706,9.562000274658203,3.3440001010894775,2.9619998931884766,2.1549999713897705,5.455999851226807,1.6790000200271606,7.5970001220703125,3.6710000038146973,1.378000020980835,1.3450000286102295,2.5739998817443848,2.059000015258789,6.85699987411499,1.11899995803833,5.413000106811523,3.253000020980835,2.5179998874664307,4.788000106811523,1.36899995803833,1.343999981880188,2.428999900817871,3.5269999504089355,2.194000005722046,2.4100000858306885,2.5399999618530273,3.1540000438690186,5.139999866485596,1.559000015258789,5.966000080108643,1.9900000095367432,2.6649999618530273,2.6579999923706055,2.2750000953674316,
171,2.996999979019165,3.184999942779541,9.590999603271484,3.3480000495910645,2.9619998931884766,2.1600000858306885,5.5,1.659999966621399,7.639999866485596,3.6540000438690186,1.3890000581741333,1.350000023841858,2.6019999980926514,2.059999942779541,6.8979997634887695,1.125,5.4029998779296875,3.257999897003174,2.5199999809265137,4.763999938964844,1.3730000257492065,1.3300000429153442,2.4590001106262207,3.5390000343322754,2.2200000286102295,2.385999917984009,2.5409998893737793,3.135999917984009,5.144000053405762,1.5570000410079956,5.909999847412109,1.9630000591278076,2.6610000133514404,2.6549999713897705,2.2799999713897705,
172,3.01200008392334,3.187000036239624,9.71399974822998,3.3480000495910645,2.9630000591278076,2.1760001182556152,5.541999816894531,1.6770000457763672,7.706999778747559,3.6600000858306885,1.3869999647140503,1.3639999628067017,2.614000082015991,2.0799999237060547,6.958000183105469,1.1339999437332153,5.455999851226807,3.305999994277954,2.555999994277954,4.817999839782715,1.3760000467300415,1.343000054359436,2.4820001125335693,3.569000005722046,2.253999948501587,2.430000066757202,2.5460000038146973,3.127000093460083,5.136000156402588,1.565999984741211,6.065999984741211,1.9989999532699585,2.6740000247955322,2.688999891281128,2.312000036239624,
173,3.009000062942505,3.187999963760376,9.677000045776367,3.3459999561309814,2.9630000591278076,2.171999931335449,5.551000118255615,1.6859999895095825,7.706999778747559,3.619999885559082,1.3880000114440918,1.3760000467300415,2.61299991607666,2.0829999446868896,6.956999778747559,1.1360000371932983,5.435999870300293,3.2950000762939453,2.5439999103546143,4.7829999923706055,1.3639999628067017,1.3380000591278076,2.4760000705718994,3.556999921798706,2.25600004196167,2.4140000343322754,2.5399999618530273,3.1089999675750732,5.067999839782715,1.5509999990463257,5.940999984741211,1.9989999532699585,2.6530001163482666,2.6630001068115234,2.2950000762939453,
174,3.0260000228881836,3.187000036239624,9.635000228881836,3.3459999561309814,2.9609999656677246,2.180000066757202,5.565000057220459,1.659999966621399,7.709000110626221,3.6459999084472656,1.3980000019073486,1.3489999771118164,2.624000072479248,2.052000045776367,7.01200008392334,1.1419999599456787,5.36899995803833,3.236999988555908,2.5290000438690186,4.747000217437744,1.3569999933242798,1.3380000591278076,2.4649999141693115,3.565000057220459,2.246000051498413,2.4110000133514404,2.5399999618530273,3.0840001106262207,5.03000020980835,1.5399999618530273,5.939000129699707,1.9670000076293945,2.6549999713897705,2.684999942779541,2.2839999198913574,
175,3.0290000438690186,3.1700000762939453,9.673999786376953,3.3340001106262207,2.9560000896453857,2.188999891281128,5.583000183105469,1.6419999599456787,7.6479997634887695,3.621999979019165,1.3890000581741333,1.3350000381469727,2.630000114440918,2.046999931335449,7.013000011444092,1.1349999904632568,5.374000072479248,3.259000062942505,2.5199999809265137,4.748000144958496,1.3630000352859497,1.3389999866485596,2.4760000705718994,3.569999933242798,2.2079999446868896,2.382999897003174,2.5329999923706055,3.059000015258789,5.008999824523926,1.534000039100647,5.906000137329102,1.9490000009536743,2.634999990463257,2.700000047683716,2.2809998989105225,
176,3.0339999198913574,3.1689999103546143,9.65999984741211,3.3310000896453857,2.9560000896453857,2.1700000762939453,5.585000038146973,1.6549999713897705,7.702000141143799,3.615000009536743,1.3890000581741333,1.3539999723434448,2.61299991607666,2.0399999618530273,6.984000205993652,1.1469999551773071,5.374000072479248,3.2669999599456787,2.5220000743865967,4.703000068664551,1.3630000352859497,1.3680000305175781,2.4800000190734863,3.561000108718872,2.2200000286102295,2.375,2.5320000648498535,3.055999994277954,5.01200008392334,1.5219999551773071,5.914000034332275,1.9579999446868896,2.6410000324249268,2.750999927520752,2.2899999618530273,
177,2.997999906539917,3.1679999828338623,9.52400016784668,3.3289999961853027,2.9539999961853027,2.125,5.572999954223633,1.6360000371932983,7.574999809265137,3.5250000953674316,1.3969999551773071,1.3270000219345093,2.572999954223633,2.003999948501587,6.960000038146973,1.1369999647140503,5.330999851226807,3.2339999675750732,2.493000030517578,4.688000202178955,1.3609999418258667,1.3300000429153442,2.4549999237060547,3.5250000953674316,2.2079999446868896,2.3540000915527344,2.5299999713897705,3.0250000953674316,4.964000225067139,1.4930000305175781,5.679999828338623,1.9279999732971191,2.5840001106262207,2.7079999446868896,2.2699999809265137,
178,3.009000062942505,3.1710000038146973,9.61400032043457,3.3329999446868896,2.9560000896453857,2.13100004196167,5.584000110626221,1.6269999742507935,7.599999904632568,3.555000066757202,1.3980000019073486,1.343000054359436,2.572999954223633,2.0190000534057617,7.040999889373779,1.1319999694824219,5.355000019073486,3.2130000591278076,2.4820001125335693,4.689000129699707,1.3639999628067017,1.3359999656677246,2.4719998836517334,3.569999933242798,2.200000047683716,2.321000099182129,2.5350000858306885,3.0429999828338623,5.050000190734863,1.5290000438690186,5.7220001220703125,1.9179999828338623,2.6059999465942383,2.7179999351501465,2.2799999713897705,
179,3.0399999618530273,3.1700000762939453,9.751999855041504,3.3350000381469727,2.9539999961853027,2.1670000553131104,5.642000198364258,1.656000018119812,7.618000030517578,3.5840001106262207,1.4149999618530273,1.319000005722046,2.617000102996826,2.0260000228881836,7.11899995803833,1.1490000486373901,5.466000080108643,3.259999990463257,2.5380001068115234,4.736000061035156,1.3580000400543213,1.3580000400543213,2.4779999256134033,3.615000009536743,2.196000099182129,2.3580000400543213,2.5339999198913574,3.0439999103546143,4.978000164031982,1.531000018119812,5.817999839782715,1.9570000171661377,2.628000020980835,2.739000082015991,2.2699999809265137,
180,3.0199999809265137,3.171999931335449,9.475000381469727,3.3429999351501465,2.9539999961853027,2.122999906539917,5.599999904632568,1.6200000047683716,7.460999965667725,3.509999990463257,1.409000039100647,1.3020000457763672,2.5799999237060547,2.0190000534057617,6.800000190734863,1.1380000114440918,5.328000068664551,3.196000099182129,2.443000078201294,4.668000221252441,1.3639999628067017,1.3300000429153442,2.4140000343322754,3.503000020980835,2.1540000438690186,2.319999933242798,2.5390000343322754,2.994999885559082,4.855999946594238,1.4889999628067017,5.679999828338623,1.9199999570846558,2.558000087738037,2.634999990463257,2.239000082015991,
181,3.0199999809265137,3.1740000247955322,9.390000343322754,3.3440001010894775,2.9560000896453857,2.122999906539917,5.605000019073486,1.625,7.360000133514404,3.5209999084472656,1.402999997138977,1.3170000314712524,2.5810000896453857,2.0230000019073486,6.701000213623047,1.1380000114440918,5.2820000648498535,3.2290000915527344,2.444999933242798,4.609000205993652,1.3589999675750732,1.3209999799728394,2.384000062942505,3.4570000171661377,2.1589999198913574,2.3269999027252197,2.5350000858306885,2.931999921798706,4.936999797821045,1.4739999771118164,5.685999870300293,1.940999984741211,2.561000108718872,2.6679999828338623,2.2119998931884766,
182,3.0360000133514404,3.1760001182556152,9.444999694824219,3.3380000591278076,2.9539999961853027,2.121999979019165,5.6570000648498535,1.6180000305175781,7.4120001792907715,3.558000087738037,1.4160000085830688,1.3209999799728394,2.5810000896453857,2.0250000953674316,6.743000030517578,1.149999976158142,5.289000034332275,3.2309999465942383,2.4660000801086426,4.633999824523926,1.3650000095367432,1.3370000123977661,2.4159998893737793,3.4800000190734863,2.1630001068115234,2.3420000076293945,2.5360000133514404,2.9730000495910645,4.984000205993652,1.4989999532699585,5.765999794006348,1.934000015258789,2.5859999656677246,2.6480000019073486,2.240999937057495,
183,3.007999897003174,3.1760001182556152,9.293999671936035,3.3359999656677246,2.9560000896453857,2.0969998836517334,5.611999988555908,1.6269999742507935,7.296000003814697,3.490000009536743,1.4119999408721924,1.3209999799728394,2.555000066757202,2.0309998989105225,6.560999870300293,1.1410000324249268,5.2220001220703125,3.2200000286102295,2.441999912261963,4.558000087738037,1.3650000095367432,1.3320000171661377,2.372999906539917,3.431999921798706,2.1589999198913574,2.319999933242798,2.5450000762939453,2.944999933242798,4.9120001792907715,1.4769999980926514,5.638000011444092,1.9420000314712524,2.5380001068115234,2.622999906539917,2.2009999752044678,
184,3.0199999809265137,3.1760001182556152,9.338000297546387,3.3380000591278076,2.9560000896453857,2.1019999980926514,5.6579999923706055,1.6239999532699585,7.379000186920166,3.496000051498413,1.4160000085830688,1.2999999523162842,2.572999954223633,2.0179998874664307,6.63700008392334,1.149999976158142,5.254000186920166,3.193000078201294,2.440000057220459,4.583000183105469,1.3600000143051147,1.3200000524520874,2.390000104904175,3.450000047683716,2.1640000343322754,2.365000009536743,2.5350000858306885,2.989000082015991,4.949999809265137,1.4809999465942383,5.639999866485596,1.940000057220459,2.5439999103546143,2.6419999599456787,2.2239999771118164,
185,3.005000114440918,3.177000045776367,9.295000076293945,3.3399999141693115,2.9539999961853027,2.0859999656677246,5.650000095367432,1.6390000581741333,7.330999851226807,3.509999990463257,1.4299999475479126,1.312000036239624,2.553999900817871,2.0220000743865967,6.59499979019165,1.1419999599456787,5.230000019073486,3.177999973297119,2.443000078201294,4.559999942779541,1.3619999885559082,1.3359999656677246,2.385999917984009,3.4739999771118164,2.1610000133514404,2.3420000076293945,2.5350000858306885,2.9779999256134033,4.900000095367432,1.4809999465942383,5.631999969482422,1.9500000476837158,2.549999952316284,2.63100004196167,2.2249999046325684,
186,3.0190000534057617,3.174999952316284,9.279999732971191,3.3410000801086426,2.9560000896453857,2.0940001010894775,5.650000095367432,1.6380000114440918,7.2789998054504395,3.5169999599456787,1.4229999780654907,1.3070000410079956,2.559999942779541,2.0450000762939453,6.579999923706055,1.149999976158142,5.2179999351501465,3.2109999656677246,2.444000005722046,4.5329999923706055,1.371000051498413,1.3229999542236328,2.365000009536743,3.4820001125335693,2.1619999408721924,2.3540000915527344,2.5409998893737793,2.99399995803833,5.005000114440918,1.4789999723434448,5.5879998207092285,1.975000023841858,2.5409998893737793,2.687000036239624,2.2119998931884766,
187,3.0280001163482666,3.177000045776367,9.288999557495117,3.3429999351501465,2.9570000171661377,2.0950000286102295,5.660999774932861,1.6490000486373901,7.416999816894531,3.509000062942505,1.4320000410079956,1.3250000476837158,2.569999933242798,2.0399999618530273,6.599999904632568,1.156000018119812,5.236000061035156,3.2109999656677246,2.4560000896453857,4.619999885559082,1.3639999628067017,1.3480000495910645,2.380000114440918,3.4700000286102295,2.1710000038146973,2.3469998836517334,2.5390000343322754,3.063999891281128,5.0320000648498535,1.4730000495910645,5.545000076293945,1.968999981880188,2.553999900817871,2.6630001068115234,2.2109999656677246,
188,3.0250000953674316,3.174999952316284,9.307999610900879,3.3429999351501465,2.9549999237060547,2.0989999771118164,5.699999809265137,1.6510000228881836,7.480000019073486,3.5199999809265137,1.4179999828338623,1.3220000267028809,2.565000057220459,2.0460000038146973,6.659999847412109,1.1519999504089355,5.270999908447266,3.2119998931884766,2.4549999237060547,4.625999927520752,1.3609999418258667,1.3519999980926514,2.375,3.5,2.177000045776367,2.3289999961853027,2.5369999408721924,3.1080000400543213,5.063000202178955,1.4809999465942383,5.525000095367432,1.9550000429153442,2.5759999752044678,2.6449999809265137,2.2009999752044678,
189,3.0329999923706055,3.174999952316284,9.23900032043457,3.3450000286102295,2.9570000171661377,2.0889999866485596,5.685999870300293,1.6369999647140503,7.426000118255615,3.494999885559082,1.434000015258789,1.3300000429153442,2.555000066757202,2.049999952316284,6.531000137329102,1.149999976158142,5.263999938964844,3.2209999561309814,2.4579999446868896,4.625999927520752,1.3600000143051147,1.3639999628067017,2.378999948501587,3.509000062942505,2.196000099182129,2.328000068664551,2.5439999103546143,3.0820000171661377,4.941999912261963,1.4600000381469727,5.533999919891357,1.9800000190734863,2.5480000972747803,2.638000011444092,2.2200000286102295,
190,3.009999990463257,3.177000045776367,9.107999801635742,3.3459999561309814,2.9570000171661377,2.058000087738037,5.672999858856201,1.6139999628067017,7.320000171661377,3.4489998817443848,1.4299999475479126,1.3029999732971191,2.5399999618530273,2.0490000247955322,6.440000057220459,1.1440000534057617,5.188000202178955,3.186000108718872,2.4119999408721924,4.571000099182129,1.3630000352859497,1.343000054359436,2.3389999866485596,3.438999891281128,2.1600000858306885,2.3369998931884766,2.5450000762939453,3.065000057220459,4.966000080108643,1.4500000476837158,5.458000183105469,1.965999960899353,2.5250000953674316,2.6500000953674316,2.180999994277954,
191,2.986999988555908,3.177000045776367,9.010000228881836,3.3450000286102295,2.9560000896453857,2.0439999103546143,5.639999866485596,1.61899995803833,7.260000228881836,3.446000099182129,1.4190000295639038,1.309999942779541,2.5199999809265137,2.0260000228881836,6.34499979019165,1.1349999904632568,5.173999786376953,3.1730000972747803,2.4000000953674316,4.559999942779541,1.3619999885559082,1.312999963760376,2.3239998817443848,3.4089999198913574,2.1670000553131104,2.3299999237060547,2.5450000762939453,3.119999885559082,4.931000232696533,1.440000057220459,5.406000137329102,1.9700000286102295,2.503999948501587,2.6389999389648438,2.174999952316284,
192,2.984999895095825,3.177999973297119,9.0600004196167,3.3459999561309814,2.9560000896453857,2.059000015258789,5.586999893188477,1.590999960899353,7.28000020980835,3.4189999103546143,1.409999966621399,1.3070000410079956,2.5169999599456787,2.0320000648498535,6.4670000076293945,1.1230000257492065,5.133999824523926,3.132999897003174,2.4000000953674316,4.485000133514404,1.3619999885559082,1.3049999475479126,2.2760000228881836,3.4110000133514404,2.134999990463257,2.2980000972747803,2.5480000972747803,3.0769999027252197,4.800000190734863,1.434000015258789,5.328999996185303,1.9299999475479126,2.490000009536743,2.5899999141693115,2.131999969482422,
193,3.003000020980835,3.178999900817871,9.22599983215332,3.3440001010894775,2.9579999446868896,2.0829999446868896,5.617000102996826,1.5850000381469727,7.369999885559082,3.4760000705718994,1.409000039100647,1.2999999523162842,2.5480000972747803,2.0429999828338623,6.610000133514404,1.1239999532699585,5.244999885559082,3.1530001163482666,2.430000066757202,4.563000202178955,1.3619999885559082,1.309999942779541,2.3450000286102295,3.440999984741211,2.1530001163482666,2.2980000972747803,2.555000066757202,3.0859999656677246,4.840000152587891,1.4500000476837158,5.386000156402588,1.9789999723434448,2.5250000953674316,2.5899999141693115,2.188999891281128,
194,2.993000030517578,3.180000066757202,9.097000122070312,3.3459999561309814,2.9579999446868896,2.0820000171661377,5.5929999351501465,1.5820000171661377,7.322000026702881,3.4630000591278076,1.4019999504089355,1.2929999828338623,2.5439999103546143,2.0769999027252197,6.521999835968018,1.1230000257492065,5.199999809265137,3.1559998989105225,2.433000087738037,4.543000221252441,1.3600000143051147,1.315000057220459,2.364000082015991,3.4600000381469727,2.1480000019073486,2.299999952316284,2.5510001182556152,3.1089999675750732,4.789999961853027,1.4479999542236328,5.395999908447266,1.9759999513626099,2.5179998874664307,2.5799999237060547,2.190000057220459,
195,2.993000030517578,3.181999921798706,9.170000076293945,3.3459999561309814,2.9579999446868896,2.0940001010894775,5.584000110626221,1.590000033378601,7.335000038146973,3.510999917984009,1.406000018119812,1.309999942779541,2.556999921798706,2.072999954223633,6.559999942779541,1.128999948501587,5.218999862670898,3.1600000858306885,2.436000108718872,4.543000221252441,1.3600000143051147,1.340000033378601,2.322999954223633,3.4670000076293945,2.1500000953674316,2.305999994277954,2.549999952316284,3.069999933242798,4.821000099182129,1.4559999704360962,5.550000190734863,2.0,2.5490000247955322,2.5869998931884766,2.190999984741211,
196,3.0280001163482666,3.181999921798706,9.256999969482422,3.3440001010894775,2.9560000896453857,2.0929999351501465,5.656000137329102,1.6019999980926514,7.418000221252441,3.5269999504089355,1.406000018119812,1.2940000295639038,2.546999931335449,2.059000015258789,6.6529998779296875,1.1390000581741333,5.2789998054504395,3.1649999618530273,2.450000047683716,4.553999900817871,1.3650000095367432,1.3289999961853027,2.3469998836517334,3.4679999351501465,2.134999990463257,2.2799999713897705,2.556999921798706,3.125,4.830999851226807,1.4609999656677246,5.571000099182129,2.009999990463257,2.5369999408721924,2.559999942779541,2.180999994277954,
197,3.0230000019073486,3.180000066757202,9.42300033569336,3.3440001010894775,2.9579999446868896,2.068000078201294,5.677000045776367,1.6109999418258667,7.47599983215332,3.509000062942505,1.4079999923706055,1.3020000457763672,2.556999921798706,2.0810000896453857,6.7729997634887695,1.152999997138977,5.388999938964844,3.2039999961853027,2.4639999866485596,4.683000087738037,1.3600000143051147,1.3539999723434448,2.4179999828338623,3.566999912261963,2.1730000972747803,2.3289999961853027,2.555999994277954,3.1500000953674316,4.809999942779541,1.4539999961853027,5.585999965667725,2.0460000038146973,2.549999952316284,2.5999999046325684,2.243000030517578,
198,3.0369999408721924,3.181999921798706,9.279999732971191,3.3429999351501465,2.9579999446868896,2.062000036239624,5.704999923706055,1.6089999675750732,7.380000114440918,3.444999933242798,1.4190000295639038,1.3040000200271606,2.5480000972747803,2.069000005722046,6.7170000076293945,1.152999997138977,5.324999809265137,3.2039999961853027,2.4590001106262207,4.632999897003174,1.3609999418258667,1.3200000524520874,2.4019999504089355,3.569000005722046,2.1530001163482666,2.319999933242798,2.5480000972747803,3.1519999504089355,4.75,1.434999942779541,5.447999954223633,2.0290000438690186,2.5239999294281006,2.614000082015991,2.2249999046325684,
199,3.055000066757202,3.180000066757202,9.38700008392334,3.3450000286102295,2.9579999446868896,2.0859999656677246,5.760000228881836,1.5959999561309814,7.489999771118164,3.4630000591278076,1.4450000524520874,1.3309999704360962,2.562999963760376,2.055000066757202,6.756999969482422,1.1660000085830688,5.341000080108643,3.2130000591278076,2.4700000286102295,4.644000053405762,1.3580000400543213,1.3489999771118164,2.4119999408721924,3.5910000801086426,2.183000087738037,2.306999921798706,2.546999931335449,3.191999912261963,4.789999961853027,1.444000005722046,5.47599983215332,2.009999990463257,2.5420000553131104,2.6059999465942383,2.2330000400543213,
200,3.066999912261963,3.177000045776367,9.342000007629395,3.3440001010894775,2.9560000896453857,2.0759999752044678,5.750999927520752,1.593000054359436,7.400000095367432,3.4210000038146973,1.4550000429153442,1.3140000104904175,2.559999942779541,2.0490000247955322,6.7870001792907715,1.1720000505447388,5.3460001945495605,3.184999942779541,2.4570000171661377,4.660999774932861,1.3539999723434448,1.3380000591278076,2.4040000438690186,3.575000047683716,2.174999952316284,2.303999900817871,2.5490000247955322,3.1600000858306885,4.683000087738037,1.4279999732971191,5.438000202178955,1.9950000047683716,2.497999906539917,2.6449999809265137,2.2090001106262207,
201,3.0799999237060547,3.180999994277954,9.324000358581543,3.3459999561309814,2.9579999446868896,2.1019999980926514,5.75600004196167,1.6030000448226929,7.461999893188477,3.4679999351501465,1.4490000009536743,1.3070000410079956,2.5810000896453857,2.066999912261963,6.691999912261963,1.1699999570846558,5.3460001945495605,3.2049999237060547,2.4619998931884766,4.7230000495910645,1.3580000400543213,1.3660000562667847,2.385999917984009,3.5840001106262207,2.178999900817871,2.306999921798706,2.5450000762939453,3.1649999618530273,4.765999794006348,1.4520000219345093,5.552999973297119,1.9780000448226929,2.5450000762939453,2.6510000228881836,2.2239999771118164,
