,PLP.NZ,APA.NZ,ASD.NZ,ASF.NZ,MZY.NZ,ASP.NZ,ASR.NZ,BOT.NZ,EMG.NZ,EMF.NZ,EUG.NZ,EUF.NZ,AGG.NZ,GBF.NZ,ESG.NZ,GGB.NZ,INF.NZ,GPR.NZ,LIV.NZ,JPN.NZ,NZB.NZ,NZC.NZ,DIV.NZ,MDZ.NZ,NPF.NZ,TNZ.NZ,FNZ.NZ,AUS.NZ,NZG.NZ,NGB.NZ,TWH.NZ,TWF.NZ,USH.NZ,USF.NZ,USA.NZ,USG.NZ,USV.NZ,USM.NZ,USS.NZ
0,,1.7753854990005493,1.2112164497375488,4.905498027801514,6.550834655761719,1.0797206163406372,4.105458736419678,3.229020833969116,2.0349490642547607,1.1730942726135254,2.1634137630462646,1.4455007314682007,1.274309754371643,3.1017119884490967,2.0691709518432617,,,,2.981842279434204,1.8364590406417847,2.8667378425598145,2.770700693130493,0.8966599702835083,4.710757732391357,1.173417568206787,2.0153257846832275,2.5947959423065186,2.2336349487304688,2.306986093521118,2.324699878692627,2.418672561645508,2.219992160797119,,8.471851348876953,2.2851014137268066,6.095180511474609,2.8978471755981445,4.884191513061523,4.27016019821167
1,,1.8056793212890625,1.2292208671569824,5.0194783210754395,6.6788129806518555,1.0958611965179443,4.1648149490356445,3.2872443199157715,2.0549464225769043,1.185865044593811,2.230097770690918,1.4683295488357544,1.2835776805877686,3.10542893409729,2.1066877841949463,,,,3.057206392288208,1.875173568725586,2.8685522079467773,2.7697653770446777,0.9033081531524658,4.7196574211120605,1.1786717176437378,2.0246994495391846,2.6019322872161865,2.271793842315674,2.321518659591675,2.324699878692627,2.4490368366241455,2.254490375518799,,8.554139137268066,2.3327488899230957,6.170312881469727,2.9144856929779053,4.930823802947998,4.333643436431885
2,,1.8084332942962646,1.236586570739746,4.995115756988525,6.712879180908203,1.101807713508606,4.222522258758545,3.2643370628356934,2.0597081184387207,1.2059334516525269,2.2186660766601562,1.481113314628601,1.2770901918411255,3.10542893409729,2.0932202339172363,,,,3.054231643676758,1.8831149339675903,2.8649234771728516,2.771636724472046,0.9041391611099243,4.711647987365723,1.1742931604385376,2.032198190689087,2.5939040184020996,2.277118682861328,2.3224270343780518,2.318268060684204,2.4613723754882812,2.2591521739959717,,8.562555313110352,2.323815107345581,6.183627128601074,2.9163341522216797,4.940149784088135,4.338311195373535
3,,1.8258748054504395,1.2472254037857056,5.032529354095459,6.76812219619751,1.0831186771392822,4.316503047943115,3.3235151767730713,2.0958926677703857,1.2095823287963867,2.2377185821533203,1.4783737659454346,1.2780166864395142,3.1082167625427246,2.116307258605957,,,,3.0790224075317383,1.8851003646850586,2.8649234771728516,2.770700693130493,0.9082942008972168,4.73656702041626,1.1795474290847778,2.025636672973633,2.605499744415283,2.2851052284240723,2.326968193054199,2.3072423934936523,2.473707675933838,2.275002956390381,,8.604634284973145,2.3426754474639893,6.212158679962158,2.941291332244873,4.976521968841553,4.398059368133545
4,,1.8185310363769531,1.2439520359039307,4.959442615509033,6.685258865356445,1.0933126211166382,4.246429443359375,3.286290407180786,2.0654211044311523,1.213231086730957,2.199613571166992,1.4884185791015625,1.2752364873886108,3.109145402908325,2.0874483585357666,,,,3.0512566566467285,1.8811296224594116,2.8667378425598145,2.7725729942321777,0.9074631929397583,4.72410774230957,1.1821744441986084,1.9965782165527344,2.5903358459472656,2.2638072967529297,2.302445411682129,2.3155112266540527,2.468963146209717,2.265678882598877,,8.605568885803223,2.3188517093658447,6.241640567779541,2.911712884902954,4.934554100036621,4.366318225860596
5,,1.8368905782699585,1.2635934352874756,5.134327411651611,6.767201900482178,1.104356288909912,4.297540664672852,3.3111073970794678,2.084465980529785,1.195899248123169,2.2177131175994873,1.4938974380493164,1.2780166864395142,3.1119332313537598,2.128812313079834,,,,3.1147212982177734,1.8771589994430542,2.8685522079467773,2.7725729942321777,0.9066321849822998,4.752587795257568,1.1804229021072388,2.004077672958374,2.5956881046295166,2.31616473197937,2.307894468307495,2.3145928382873535,2.469911813735962,2.2843265533447266,,8.729000091552734,2.359550952911377,6.257807731628418,2.9745686054229736,4.990510940551758,4.426066875457764
6,,1.8387266397476196,1.2815978527069092,5.1821818351745605,6.75247049331665,1.115399718284607,4.345355987548828,3.2500197887420654,2.076847791671753,1.2031968832015991,2.231050729751587,1.4948102235794067,1.278943419456482,3.111004114151001,2.1307363510131836,,,,3.057206392288208,1.8960198163986206,2.867645025253296,2.7725729942321777,0.9024769067764282,4.752587795257568,1.1856770515441895,1.990017056465149,2.6046080589294434,2.337463140487671,2.3060781955718994,2.3145928382873535,2.488889217376709,2.3011090755462646,,8.74209213256836,2.3674919605255127,6.233080863952637,3.019861936569214,5.019423007965088,4.4708781242370605
7,,1.8653484582901,1.2685036659240723,5.242217540740967,6.659479141235352,1.1204968690872192,4.258795738220215,3.2872443199157715,2.0835134983062744,1.1968114376068115,2.252960681915283,1.5231178998947144,1.2715293169021606,3.1147210597991943,2.132660150527954,,,,3.059189796447754,1.9208368062973022,2.8685522079467773,2.771636724472046,0.892504870891571,4.671597480773926,1.155903935432434,1.9553346633911133,2.5617921352386475,2.3214893341064453,2.273380756378174,2.3228631019592285,2.4670655727386475,2.3160269260406494,,8.778558731079102,2.3615360260009766,6.222620010375977,3.042045831680298,5.0212883949279785,4.483948230743408
8,,1.8956419229507446,1.26686692237854,5.22220516204834,6.713800430297852,1.122195839881897,4.2695112228393555,3.3225603103637695,2.098749876022339,1.2205287218093872,2.301544427871704,1.5203783512115479,1.2715293169021606,3.1082167625427246,2.160557508468628,,,,3.050265073776245,1.9496245384216309,2.8730878829956055,2.7725729942321777,0.8883499503135681,4.661807537078857,1.1664119958877563,1.9675204753875732,2.5653603076934814,2.3285889625549316,2.2788302898406982,2.326537609100342,2.517355442047119,2.3122973442077637,,8.843080520629883,2.3903231620788574,6.31201696395874,3.049440860748291,5.034344673156738,4.4643425941467285
9,,1.9002317190170288,1.2750507593154907,5.255268096923828,6.839937210083008,1.131540298461914,4.303311347961426,3.395101547241211,2.1130335330963135,1.2223531007766724,2.312976360321045,1.5468595027923584,1.272456169128418,3.1072874069213867,2.16440486907959,,,,3.1008384227752686,1.9774196147918701,2.873995304107666,2.7725729942321777,0.8833637237548828,4.63065767288208,1.1567795276641846,1.9675204753875732,2.543060541152954,2.3525493144989014,2.2670230865478516,2.3302133083343506,2.5145089626312256,2.349592685699463,,8.906664848327637,2.4181177616119385,6.3833441734313965,3.054062843322754,5.0819091796875,4.521291255950928
10,,1.8983957767486572,1.2725955247879028,5.178701400756836,6.8233642578125,1.122195839881897,4.316503047943115,3.383647918701172,2.1130335330963135,1.2296510934829712,2.2901127338409424,1.5304228067398071,1.2613348960876465,3.10542893409729,2.1778721809387207,,,,3.074064254760742,1.9714635610580444,2.8785312175750732,2.7725729942321777,0.9024769067764282,4.710757732391357,1.1681631803512573,1.9956412315368652,2.584091901779175,2.345449686050415,2.292454242706299,2.3191866874694824,2.511662483215332,2.3421337604522705,,8.911341667175293,2.4121618270874023,6.375735759735107,3.0522139072418213,5.0660552978515625,4.5016865730285645
11,,1.9167556762695312,1.2848714590072632,5.188272476196289,6.917276382446289,1.1289918422698975,4.3717360496521,3.3884201049804688,2.121603012084961,1.2369484901428223,2.301544427871704,1.5240308046340942,1.2641150951385498,3.10542893409729,2.1778721809387207,,,,3.1167044639587402,1.9605441093444824,2.8785312175750732,2.770700693130493,0.9141111969947815,4.7792863845825195,1.1804229021072388,2.0368850231170654,2.6224472522735596,2.3605363368988037,2.3424086570739746,2.3256189823150635,2.5183041095733643,2.349592685699463,,8.883289337158203,2.4121618270874023,6.414728164672852,3.042970657348633,5.086572647094727,4.504487037658691
12,,1.9002317190170288,1.2832344770431519,5.198713302612305,6.94581937789917,1.117948293685913,4.295892715454102,3.37410306930542,2.1120808124542236,1.2278265953063965,2.2891604900360107,1.5276834964752197,1.2706027030944824,3.10542893409729,2.172100305557251,,,,3.0919137001037598,1.955580711364746,2.8821604251861572,2.770700693130493,0.9116181135177612,4.7970871925354,1.18655264377594,2.0031402111053467,2.616203546524048,2.37029767036438,2.3169772624969482,2.3302133083343506,2.5239975452423096,2.333742141723633,,8.83653450012207,2.4111690521240234,6.416630744934082,3.0124666690826416,5.037143230438232,4.436336517333984
13,,1.8800361156463623,1.2701404094696045,5.14824914932251,6.929245948791504,1.1128511428833008,4.2159271240234375,3.3540587425231934,2.0892276763916016,1.2077579498291016,2.263439893722534,1.4993760585784912,1.2641150951385498,3.109145402908325,2.16440486907959,,,,3.0978636741638184,1.9506173133850098,2.883974313735962,2.7725729942321777,0.917435348033905,4.790856838226318,1.1821744441986084,1.9956412315368652,2.610852003097534,2.348112106323242,2.308802843093872,2.3292946815490723,2.4670655727386475,2.3001768589019775,,8.787910461425781,2.3893306255340576,6.359567642211914,2.9856603145599365,4.98305082321167,4.422333240509033
14,,1.8901340961456299,1.2758692502975464,5.190882682800293,6.9946160316467285,1.1417343616485596,4.23736047744751,3.366467237472534,2.0892276763916016,1.2269142866134644,2.2958288192749023,1.5331623554229736,1.2687491178512573,3.1072874069213867,2.1884541511535645,,,,3.127612590789795,1.9754343032836914,2.8866963386535645,2.7725729942321777,0.9299004673957825,4.8558268547058105,1.2066935300827026,2.020012617111206,2.646531105041504,2.3649730682373047,2.33786678314209,2.3338887691497803,2.522099733352661,2.3477280139923096,,8.941265106201172,2.4111690521240234,6.521245002746582,3.006920337677002,5.04833459854126,4.469944953918457
15,,1.8910518884658813,1.2742323875427246,5.142157554626465,7.034206390380859,1.1298414468765259,4.240658283233643,3.377920627593994,2.113985776901245,1.2314753532409668,2.272966146469116,1.5158127546310425,1.272456169128418,3.111004114151001,2.1932637691497803,,,,3.1097631454467773,1.948632001876831,2.8894176483154297,2.7725729942321777,0.9348864555358887,4.894986152648926,1.216326117515564,2.0246994495391846,2.6732912063598633,2.3614232540130615,2.3632986545562744,2.334807872772217,2.5192530155181885,2.349592685699463,,8.96838092803955,2.440948963165283,6.560236930847168,3.011542558670044,5.039008140563965,4.447539329528809
16,,1.9094115495681763,1.2815978527069092,5.277889251708984,7.0958943367004395,1.1408849954605103,4.234062671661377,3.406554937362671,2.1463615894317627,1.2442461252212524,2.3148818016052246,1.5313361883163452,1.2752364873886108,3.111004114151001,2.224046468734741,,,,3.1008384227752686,1.9843683242797852,2.8912320137023926,2.7735090255737305,0.9423655271530151,4.932366847991943,1.2145748138427734,2.0396971702575684,2.6866707801818848,2.372960090637207,2.3741977214813232,2.3394014835357666,2.5515143871307373,2.3831584453582764,,9.083395004272461,2.463780164718628,6.6172990798950195,3.0559115409851074,5.088437557220459,4.497951030731201
17,,1.9121654033660889,1.2693220376968384,5.169131278991699,7.0958943367004395,1.1366376876831055,4.178004264831543,3.395101547241211,2.1482667922973633,1.255192756652832,2.2996397018432617,1.5395543575286865,1.2641150951385498,3.109145402908325,2.207693099975586,,,,3.082988977432251,1.9843683242797852,2.892139196395874,2.7735090255737305,0.9440276026725769,4.9403767585754395,1.2154502868652344,2.035947561264038,2.6839945316314697,2.3543241024017334,2.3732893466949463,2.3338887691497803,2.526844024658203,2.371969699859619,,9.048798561096191,2.457824230194092,6.616348743438721,3.045743703842163,5.069785118103027,4.465276718139648
18,,1.8837080001831055,1.260319709777832,5.1673903465271,7.097735404968262,1.1366376876831055,4.1466779708862305,3.4027373790740967,2.138744354248047,1.2305629253387451,2.2967817783355713,1.5158127546310425,1.2576276063919067,3.109145402908325,2.197111129760742,,,,3.0581982135772705,1.9526026248931885,2.8912320137023926,2.771636724472046,0.9490135908126831,4.952836990356445,1.2242070436477661,2.0434463024139404,2.6991586685180664,2.3560986518859863,2.3832805156707764,2.3338887691497803,2.5477190017700195,2.3579838275909424,,9.009525299072266,2.4469046592712402,6.668654918670654,2.992130994796753,5.007298469543457,4.431668281555176
19,,1.8791179656982422,1.2554093599319458,5.20395040512085,7.041571617126465,1.1374869346618652,4.12936544418335,3.4075095653533936,2.1025588512420654,1.217792272567749,2.2701077461242676,1.4993760585784912,1.2691556215286255,3.110701322555542,2.194225549697876,,,,3.03340744972229,1.9347343444824219,2.890550136566162,2.7735848426818848,0.9431965947151184,4.9688568115234375,1.216326117515564,2.051882743835449,2.7018349170684814,2.338350534439087,2.388730525970459,2.3274571895599365,2.5619523525238037,2.349592685699463,,9.045991897583008,2.457824230194092,6.669605731964111,3.0124666690826416,5.011962890625,4.432602882385254
20,,1.8726922273635864,1.2455886602401733,5.210999011993408,7.091291427612305,1.1621226072311401,4.131839275360107,3.3989193439483643,2.113985776901245,1.2351242303848267,2.2624871730804443,1.511246919631958,1.2691556215286255,3.1079018115997314,2.20288348197937,,,,3.0304324626922607,1.9436684846878052,2.889638662338257,2.7735848426818848,0.9531686305999756,4.970636367797852,1.216326117515564,2.0340728759765625,2.7062947750091553,2.343675136566162,2.3732893466949463,2.326537609100342,2.610344648361206,2.3514575958251953,,9.0329008102417,2.46179461479187,6.642025947570801,3.019861936569214,5.011962890625,4.390591144561768
21,,1.8396446704864502,1.2218555212020874,5.004814624786377,6.974360466003418,1.1298414468765259,4.092268466949463,3.364557981491089,2.1025588512420654,1.2104946374893188,2.2424817085266113,1.4938974380493164,1.267293095588684,3.1060361862182617,2.1836438179016113,,,,2.999691963195801,1.9138880968093872,2.8887267112731934,2.7717082500457764,0.9448585510253906,4.959956645965576,1.223331332206726,1.9918917417526245,2.674182653427124,2.2930922508239746,2.336958885192871,2.324699878692627,2.5695433616638184,2.324418306350708,,8.905731201171875,2.4369781017303467,6.619201183319092,2.9893579483032227,4.971858501434326,4.376588344573975
22,,1.8534144163131714,1.2513175010681152,5.041823387145996,6.997378826141357,1.1349384784698486,4.163166046142578,3.4075095653533936,2.0949409008026123,1.2250897884368896,2.211045503616333,1.485679030418396,1.270086646080017,3.109767436981201,2.1932637691497803,,,,3.0175411701202393,1.9039613008499146,2.8914623260498047,2.7735848426818848,0.9407035112380981,4.969746112823486,1.2242070436477661,1.9975156784057617,2.6839945316314697,2.312615394592285,2.336958885192871,2.3292946815490723,2.5790319442749023,2.314162492752075,,8.989888191223145,2.4538533687591553,6.696234226226807,2.96994686126709,4.9942426681518555,4.377521514892578
23,,1.8598401546478271,1.252954363822937,5.126410007476807,7.013951778411865,1.1536273956298828,4.1038103103637695,3.4504613876342773,2.0911316871643066,1.2031968832015991,2.2462921142578125,1.5121601819992065,1.2644999027252197,3.1116340160369873,2.1836438179016113,,,,3.0185327529907227,1.9426758289337158,2.890550136566162,2.7717082500457764,0.9548307061195374,5.021366596221924,1.2390937805175781,2.0312609672546387,2.711646556854248,2.3321385383605957,2.376922369003296,2.3283755779266357,2.598958730697632,2.366375684738159,,9.118927955627441,2.4598093032836914,6.770415782928467,3.0133910179138184,5.097764492034912,4.42140007019043
24,,1.8534144163131714,1.2185816764831543,5.004814624786377,6.869400501251221,1.1298414468765259,4.003233909606934,3.3435592651367188,2.0511374473571777,1.1876895427703857,2.210092544555664,1.479287028312683,1.270086646080017,3.119097948074341,2.1538233757019043,,,,2.969942569732666,1.9059466123580933,2.892374277114868,2.7717082500457764,0.9456895589828491,4.9839863777160645,1.233839750289917,1.990017056465149,2.6938064098358154,2.270019292831421,2.3433167934417725,2.332970142364502,2.5002758502960205,2.277799606323242,,8.859912872314453,2.3962793350219727,6.467035293579102,2.954232931137085,4.969060897827148,4.357916831970215
25,,1.857086420059204,1.2063058614730835,5.010101795196533,6.776408672332764,1.122195839881897,4.070010185241699,3.2996530532836914,2.055898666381836,1.2013726234436035,2.2167611122131348,1.4838526248931885,1.2654308080673218,3.1200315952301025,2.127850294113159,,,,2.9074697494506836,1.9267929792404175,2.8941969871520996,2.7735848426818848,0.9456895589828491,4.988436698913574,1.2285856008529663,1.990017056465149,2.6938064098358154,2.272681713104248,2.3442256450653076,2.3292946815490723,2.5315887928009033,2.2796642780303955,,8.780428886413574,2.366499423980713,6.372882843017578,2.984736204147339,4.92616081237793,4.302835941314697
26,,1.8589223623275757,1.2267659902572632,5.080592632293701,6.82428503036499,1.1357879638671875,4.1087565422058105,3.321606159210205,2.0597081184387207,1.2050215005874634,2.231050729751587,1.4774609804153442,1.2710177898406982,3.1144330501556396,2.1557469367980957,,,,2.948126792907715,1.919844150543213,2.8960211277008057,2.7717082500457764,0.9556617140769958,5.0347161293029785,1.2399696111679077,1.9890795946121216,2.708078622817993,2.2948670387268066,2.3442256450653076,2.3302133083343506,2.5126113891601562,2.2992444038391113,,8.831857681274414,2.3982644081115723,6.4128265380859375,2.9865849018096924,4.932688236236572,4.326174259185791
27,,1.86443030834198,1.208761215209961,4.967807769775391,6.7174835205078125,1.131540298461914,4.049400329589844,3.2757906913757324,2.055898666381836,1.2050215005874634,2.210092544555664,1.485679030418396,1.2710177898406982,3.1125667095184326,2.1172690391540527,,,,2.920361042022705,1.9277856349945068,2.8960211277008057,2.7735848426818848,0.9481825828552246,4.994667053222656,1.236466884613037,1.9656459093093872,2.683102607727051,2.2522709369659424,2.320610523223877,2.3384830951690674,2.488889217376709,2.276866912841797,,8.690661430358887,2.3555800914764404,6.2397379875183105,2.976417064666748,4.870202541351318,4.255223274230957
28,,1.8524965047836304,1.2120347023010254,4.969570159912109,6.79390287399292,1.121346354484558,4.0807271003723145,3.292971611022949,2.060659646987915,1.185865044593811,2.252960681915283,1.4829397201538086,1.266362190246582,3.1144330501556396,2.1393942832946777,,,,2.9639930725097656,1.9258003234863281,2.8960211277008057,2.7735848426818848,0.9556617140769958,5.035606384277344,1.2399696111679077,1.970332384109497,2.6938064098358154,2.2575950622558594,2.336958885192871,2.3292946815490723,2.50691819190979,2.275002956390381,,8.731805801391602,2.372455358505249,6.31201696395874,2.9514596462249756,4.900046348571777,4.278562545776367
29,,1.8561683893203735,1.2120347023010254,4.962521553039551,6.7497076988220215,1.1349384784698486,4.0395073890686035,3.3158793449401855,2.05780291557312,1.1968114376068115,2.231050729751587,1.4966368675231934,1.2682242393493652,3.1162993907928467,2.1403558254241943,,,,2.953084945678711,1.9357271194458008,2.89693284034729,2.7717082500457764,0.9490135908126831,5.028486728668213,1.25222909450531,1.9553346633911133,2.680426836013794,2.2629196643829346,2.319701910018921,2.3292946815490723,2.496480703353882,2.277799606323242,,8.691596031188965,2.3684847354888916,6.272072792053223,2.9375946521759033,4.8776631355285645,4.2570905685424805
30,,1.8772822618484497,1.2103978395462036,4.9237518310546875,6.701830863952637,1.1238946914672852,4.126069068908691,3.3235151767730713,2.058755397796631,1.1922504901885986,2.2424817085266113,1.4957234859466553,1.2766045331954956,3.11723256111145,2.127850294113159,,,,2.9689512252807617,1.9605441093444824,2.8951096534729004,2.7735848426818848,0.9556617140769958,5.028486728668213,1.2460992336273193,1.9628335237503052,2.6929147243499756,2.2549333572387695,2.3251519203186035,2.334807872772217,2.549617052078247,2.2787320613861084,,8.677571296691895,2.3476388454437256,6.257807731628418,2.968097686767578,4.866471767425537,4.231884002685547
31,,1.8726922273635864,1.205487608909607,4.885862827301025,6.828888893127441,1.1451327800750732,4.148326873779297,3.312061309814453,2.0673255920410156,1.2086702585220337,2.2358133792877197,1.5057681798934937,1.270086646080017,3.119097948074341,2.1268885135650635,,,,3.038365364074707,1.9545879364013672,2.89693284034729,2.7745234966278076,0.9606478810310364,5.038276195526123,1.2539805173873901,1.963770866394043,2.7009427547454834,2.2664694786071777,2.3342339992523193,2.332970142364502,2.526844024658203,2.2899205684661865,,8.685985565185547,2.3625288009643555,6.276828289031982,2.968097686767578,4.883259296417236,4.313104629516602
32,,1.8782001733779907,1.2120347023010254,4.8682403564453125,6.886893272399902,1.1485304832458496,4.173883438110352,3.340695858001709,2.0730392932891846,1.2059334516525269,2.2186660766601562,1.5075944662094116,1.267293095588684,3.119097948074341,2.1172690391540527,,,,3.0819973945617676,1.940690517425537,2.8951096534729004,2.77264666557312,0.9573237895965576,5.072985649108887,1.2417210340499878,1.9675204753875732,2.6982667446136475,2.2859928607940674,2.329692840576172,2.331132411956787,2.5097646713256836,2.2889881134033203,,8.703752517700195,2.357565402984619,6.333890438079834,2.969022035598755,4.915901184082031,4.318706035614014
33,,1.8818718194961548,1.1948485374450684,4.8761701583862305,6.8371758460998535,1.1587246656417847,4.074132442474365,3.3492860794067383,2.0911316871643066,1.213231086730957,2.2177131175994873,1.4948102235794067,1.266362190246582,3.120964527130127,2.1355462074279785,,,,3.0562150478363037,1.9655075073242188,2.8951096534729004,2.7745234966278076,0.9556617140769958,5.0605268478393555,1.2557317018508911,1.9581468105316162,2.705402374267578,2.2611448764801025,2.320610523223877,2.33756422996521,2.5031228065490723,2.29178524017334,,8.63923168182373,2.3615360260009766,6.211207389831543,2.977341413497925,4.909372806549072,4.318706035614014
34,,1.8809540271759033,1.1866645812988281,4.809204578399658,6.739580154418945,1.1408849954605103,4.093917369842529,3.2824723720550537,2.0568511486053467,1.1886016130447388,2.2262871265411377,1.4738081693649292,1.2691556215286255,3.121896982192993,2.098029851913452,,,,3.0393571853637695,1.9516099691390991,2.89693284034729,2.7745234966278076,0.9506755471229553,5.048956394195557,1.25222909450531,1.9290883541107178,2.6848866939544678,2.240734815597534,2.306986093521118,2.3384830951690674,2.5145089626312256,2.2488956451416016,,8.51673698425293,2.3218297958374023,6.12466287612915,2.9449892044067383,4.8384928703308105,4.267359256744385
35,,1.8598401546478271,1.178480863571167,4.76338529586792,6.684338569641113,1.115399718284607,4.065063953399658,3.2538375854492188,2.063516616821289,1.1949870586395264,2.219618797302246,1.4783737659454346,1.2682242393493652,3.120964527130127,2.0922584533691406,,,,3.0938968658447266,1.955580711364746,2.89693284034729,2.7735848426818848,0.9431965947151184,5.019586086273193,1.2425967454910278,1.9159653186798096,2.6643712520599365,2.2220981121063232,2.28882098197937,2.3384830951690674,2.5040712356567383,2.2377073764801025,,8.425098419189453,2.3069398403167725,6.0343146324157715,2.9329724311828613,4.825435638427734,4.2570905685424805
36,,1.8653484582901,1.1735703945159912,4.6955389976501465,6.702752113342285,1.1086037158966064,3.957069158554077,3.255746603012085,2.0330445766448975,1.1922504901885986,2.1891350746154785,1.4528061151504517,1.2682242393493652,3.121896982192993,2.050894021987915,,,,3.0512566566467285,1.915873408317566,2.8978447914123535,2.7735848426818848,0.9332244396209717,4.972416400909424,1.2347153425216675,1.9300256967544556,2.6625869274139404,2.209674596786499,2.2860963344573975,2.3412396907806396,2.4575765132904053,2.2377073764801025,,8.471851348876953,2.2592923641204834,6.150341033935547,2.895998001098633,4.788130283355713,4.187072277069092
37,,1.875446081161499,1.1866645812988281,4.745763301849365,6.78561544418335,1.1128511428833008,3.990043878555298,3.28438138961792,2.050185441970825,1.185865044593811,2.1891350746154785,1.4473272562026978,1.2682242393493652,3.1200315952301025,2.1057252883911133,,,,3.0601813793182373,1.9645147323608398,2.898756504058838,2.775461196899414,0.9340554475784302,4.99911642074585,1.233839750289917,1.9525226354599,2.678642511367798,2.240734815597534,2.3142523765563965,2.3476712703704834,2.4575765132904053,2.265678882598877,,8.627076148986816,2.3277857303619385,6.286339282989502,2.9144856929779053,4.891652584075928,4.259891033172607
38,,1.9066576957702637,1.185027837753296,4.754574298858643,6.741422176361084,1.1170989274978638,3.948824882507324,3.302516460418701,2.045423984527588,1.1794795989990234,2.191040277481079,1.4445878267288208,1.266362190246582,3.121896982192993,2.1066877841949463,,,,3.082988977432251,1.9615367650985718,2.8996689319610596,2.775461196899414,0.9332244396209717,4.977756500244141,1.2277100086212158,1.951585292816162,2.6697230339050293,2.2345221042633057,2.3106191158294678,2.343996524810791,2.448087692260742,2.2684760093688965,,8.506450653076172,2.346646308898926,6.202647686004639,2.9172582626342773,4.849685192108154,4.241219997406006
39,,1.90298593044281,1.191575050354004,4.890268325805664,6.753391265869141,1.1383365392684937,3.9743800163269043,3.3091981410980225,2.0473287105560303,1.1949870586395264,2.19675612449646,1.4518929719924927,1.266362190246582,3.121896982192993,2.107649326324463,,,,3.0443153381347656,1.985361099243164,2.90149188041687,2.775461196899414,0.9382104873657227,4.969746112823486,1.2312127351760864,1.9628335237503052,2.6697230339050293,2.2620322704315186,2.3224270343780518,2.3430776596069336,2.4547297954559326,2.271273136138916,,8.574711799621582,2.3059470653533936,6.238786697387695,2.9209558963775635,4.867403984069824,4.241219997406006
40,,1.8901340961456299,1.1956669092178345,4.9087724685668945,6.82981014251709,1.1289918422698975,3.982624053955078,3.310152292251587,2.0330445766448975,1.1803919076919556,2.171987533569336,1.462850570678711,1.2710177898406982,3.1200315952301025,2.098029851913452,,,,3.0988552570343018,1.9952878952026367,2.90149188041687,2.7735848426818848,0.9465207457542419,5.033827781677246,1.2312127351760864,1.9618960618972778,2.7009427547454834,2.2513833045959473,2.3133442401885986,2.3495090007781982,2.429110050201416,2.2843265533447266,,8.656063079833984,2.329770803451538,6.32723331451416,2.9255778789520264,4.923361778259277,4.251488208770752
41,,1.9103296995162964,1.1899383068084717,4.9219889640808105,6.883210182189941,1.1502296924591064,3.9653122425079346,3.4046459197998047,2.069230318069458,1.1876895427703857,2.2186660766601562,1.4710687398910522,1.266362190246582,3.1200315952301025,2.1576714515686035,,,,3.1236460208892822,2.03102445602417,2.8996689319610596,2.775461196899414,0.9581548571586609,5.052516937255859,1.2329641580581665,1.938462257385254,2.6964826583862305,2.2629196643829346,2.3224270343780518,2.348590850830078,2.4670655727386475,2.297379493713379,,8.811288833618164,2.400249719619751,6.441357612609863,2.961627244949341,5.025951385498047,4.37191915512085
42,,1.8993138074874878,1.1743887662887573,4.800393104553223,6.794822692871094,1.121346354484558,3.915849447250366,3.406554937362671,2.050185441970825,1.1895140409469604,2.210092544555664,1.4692423343658447,1.267293095588684,3.119097948074341,2.1403558254241943,,,,3.125629186630249,2.0141489505767822,2.90149188041687,2.775461196899414,0.9581548571586609,5.0774359703063965,1.2425967454910278,1.932837963104248,2.708970308303833,2.23984694480896,2.3142523765563965,2.3412396907806396,2.4803497791290283,2.292717695236206,,8.677571296691895,2.3843672275543213,6.388099670410156,2.961627244949341,4.966262340545654,4.325240612030029
43,,1.8864620923995972,1.181754469871521,4.825064182281494,6.8961005210876465,1.1459819078445435,3.948824882507324,3.427554130554199,2.0787529945373535,1.2141433954238892,2.1977083683013916,1.4573718309402466,1.2644999027252197,3.120964527130127,2.1480515003204346,,,,3.165294647216797,1.9952878952026367,2.8996689319610596,2.775461196899414,0.9689579010009766,5.126386642456055,1.265364170074463,1.9553346633911133,2.7250263690948486,2.2558205127716064,2.327876567840576,2.340320110321045,2.4727585315704346,2.302973747253418,,8.777624130249023,2.394293785095215,6.426141262054443,2.96994686126709,4.981185436248779,4.33551025390625
44,,1.8809540271759033,1.168660044670105,4.791581630706787,6.813237190246582,1.1366376876831055,3.8606150150299072,3.4122819900512695,2.071134328842163,1.1986358165740967,2.1948506832122803,1.4546324014663696,1.2607752084732056,3.1200315952301025,2.124965190887451,,,,3.1335623264312744,1.9803977012634277,2.89693284034729,2.7735848426818848,0.9739438891410828,5.1183762550354,1.2741211652755737,1.9459612369537354,2.7357304096221924,2.216773748397827,2.3251519203186035,2.342158794403076,2.5097646713256836,2.2908527851104736,,8.73554515838623,2.3863525390625,6.454672336578369,2.9440648555755615,4.985848903656006,4.351380825042725
45,,1.8974777460098267,1.1883015632629395,4.8929123878479,6.8703203201293945,1.1604235172271729,3.9290390014648438,3.420872449874878,2.0749435424804688,1.1922504901885986,2.1977083683013916,1.4637638330459595,1.2644999027252197,3.121896982192993,2.1393942832946777,,,,3.1385204792022705,1.96352219581604,2.9005799293518066,2.775461196899414,0.972281813621521,5.122826099395752,1.2688671350479126,1.970332384109497,2.747325897216797,2.2584826946258545,2.3442256450653076,2.3384830951690674,2.5154576301574707,2.2955148220062256,,8.718714714050293,2.3684847354888916,6.36432409286499,2.9625515937805176,4.985848903656006,4.409262180328369
46,,1.913083553314209,1.1923935413360596,4.941373825073242,7.017634391784668,1.1612732410430908,3.994990110397339,3.446643829345703,2.0949409008026123,1.216879963874817,2.2358133792877197,1.4993760585784912,1.259844183921814,3.121896982192993,2.160557508468628,,,,3.1831440925598145,1.9933024644851685,2.8978447914123535,2.775461196899414,0.9839162230491638,5.162876605987549,1.267991304397583,1.9787687063217163,2.770517587661743,2.2620322704315186,2.3642067909240723,2.342158794403076,2.5600545406341553,2.3206889629364014,,8.798196792602539,2.4052131175994873,6.431847095489502,2.994903564453125,5.054863929748535,4.455007076263428
47,,1.8983957767486572,1.2022141218185425,4.969570159912109,7.043414115905762,1.1672197580337524,3.948000431060791,3.4838685989379883,2.093036413192749,1.217792272567749,2.2224767208099365,1.4938974380493164,1.259844183921814,3.1228301525115967,2.1624810695648193,,,,3.214876413345337,1.9952878952026367,2.8978447914123535,2.775461196899414,0.9880710244178772,5.183346748352051,1.2723698616027832,1.9768937826156616,2.7856812477111816,2.273568868637085,2.3623902797698975,2.3394014835357666,2.4718098640441895,2.3048386573791504,,8.789780616760254,2.393301248550415,6.424239158630371,2.976417064666748,5.0809760093688965,4.484882354736328
48,,1.9387868642807007,1.2275842428207397,5.163418292999268,7.2920050621032715,1.1680690050125122,4.06918478012085,3.507730722427368,2.1482667922973633,1.2278265953063965,2.233908176422119,1.4975498914718628,1.266362190246582,3.1228301525115967,2.160557508468628,,,,3.264457941055298,2.0032291412353516,2.9005799293518066,2.7735848426818848,1.0071842670440674,5.238525390625,1.2881320714950562,2.0237619876861572,2.8400931358337402,2.34633731842041,2.405986785888672,2.335726499557495,2.5382304191589355,2.3486599922180176,,8.995497703552246,2.434993028640747,6.565942764282227,3.0328025817871094,5.1705098152160645,4.615582466125488
49,,1.9231815338134766,1.2308577299118042,5.125529766082764,7.295687198638916,1.1791127920150757,4.087322235107422,3.531592607498169,2.121603012084961,1.2342119216918945,2.2405765056610107,1.4966368675231934,1.2626374959945679,3.1228301525115967,2.1701765060424805,,,,3.2664411067962646,2.0111708641052246,2.90149188041687,2.775461196899414,1.013832449913025,5.2625555992126465,1.300391674041748,2.045321464538574,2.838308572769165,2.3268136978149414,2.4368679523468018,2.3338887691497803,2.5372817516326904,2.3617138862609863,,9.051604270935059,2.449882745742798,6.590669631958008,3.08364200592041,5.251648426055908,4.668795585632324
50,,1.9066576957702637,1.2120347023010254,5.1378655433654785,7.356454849243164,1.1655206680297852,4.064238548278809,3.5678627490997314,2.1501712799072266,1.2424217462539673,2.249150276184082,1.5066813230514526,1.2691556215286255,3.1246962547302246,2.197111129760742,,,,3.2842907905578613,1.970470905303955,2.9005799293518066,2.776400327682495,1.0254665613174438,5.312396049499512,1.311775803565979,2.0462586879730225,2.8570406436920166,2.3294763565063477,2.4386844635009766,2.332970142364502,2.5145089626312256,2.345863103866577,,8.96838092803955,2.449882745742798,6.6096906661987305,3.0522139072418213,5.1677117347717285,4.633319854736328
51,,1.9149194955825806,1.2292208671569824,5.24624490737915,7.395123481750488,1.1808117628097534,4.027966022491455,3.6012697219848633,2.1463615894317627,1.256104826927185,2.2615344524383545,1.5039417743682861,1.2644999027252197,3.1246962547302246,2.2019214630126953,,,,3.332880735397339,1.9774196147918701,2.90149188041687,2.775461196899414,1.0304527282714844,5.347995758056641,1.3179054260253906,2.0621938705444336,2.882908344268799,2.3623106479644775,2.454124689102173,2.3338887691497803,2.5695433616638184,2.3626458644866943,,9.104904174804688,2.475691795349121,6.723814964294434,3.045743703842163,5.2106122970581055,4.63985538482666
52,,1.922263741493225,1.2185816764831543,5.189852237701416,7.3997273445129395,1.1646713018417358,3.9974634647369385,3.5984065532684326,2.1501712799072266,1.2351242303848267,2.249150276184082,1.4975498914718628,1.2589126825332642,3.127495527267456,2.1932637691497803,,,,3.307098388671875,1.9843683242797852,2.90149188041687,2.7735848426818848,1.0395936965942383,5.356006145477295,1.3170297145843506,2.0715672969818115,2.8989641666412354,2.342787981033325,2.4704737663269043,2.3338887691497803,2.568594455718994,2.3542544841766357,,9.079656600952148,2.4816479682922363,6.70764684677124,3.0448193550109863,5.228332996368408,4.609980583190918
53,,1.9039037227630615,1.2292208671569824,5.182802677154541,7.40064811706543,1.1791127920150757,4.0329132080078125,3.573590040206909,2.1530277729034424,1.2378606796264648,2.2262871265411377,1.4820265769958496,1.2654308080673218,3.129361629486084,2.1932637691497803,,,,3.3289144039154053,1.985361099243164,2.898756504058838,2.775461196899414,1.0420867204666138,5.380034923553467,1.3179054260253906,2.063131093978882,2.899855852127075,2.3560986518859863,2.4704737663269043,2.33756422996521,2.549617052078247,2.33933687210083,,9.00298023223877,2.4677507877349854,6.648683071136475,3.018937110900879,5.157452583312988,4.59224271774292
54,,1.9167556762695312,1.2243107557296753,5.197782516479492,7.4034104347229,1.1697680950164795,3.9974634647369385,3.579317092895508,2.1187469959259033,1.2305629253387451,2.2234294414520264,1.490244746208191,1.2691556215286255,3.1284284591674805,2.194225549697876,,,,3.3041234016418457,1.9645147323608398,2.903316020965576,2.775461196899414,1.0337767601013184,5.380034923553467,1.329289197921753,2.0462586879730225,2.8953959941864014,2.344562292098999,2.4504916667938232,2.340320110321045,2.558156967163086,2.355186700820923,,9.107709884643555,2.469735860824585,6.693382263183594,3.042045831680298,5.2423224449157715,4.659460544586182
55,,1.8983957767486572,1.232494592666626,5.235670566558838,7.434714317321777,1.1502296924591064,4.0329132080078125,3.5936343669891357,2.1416008472442627,1.2351242303848267,2.233908176422119,1.4738081693649292,1.2710177898406982,3.1302945613861084,2.20288348197937,,,,3.3269309997558594,1.9754343032836914,2.9042274951934814,2.775461196899414,1.0312836170196533,5.3666863441467285,1.3362948894500732,2.053757667541504,2.8882598876953125,2.366748332977295,2.454124689102173,2.3394014835357666,2.587571859359741,2.365442991256714,,9.048798561096191,2.4816479682922363,6.673410415649414,3.0633060932159424,5.241389751434326,4.659460544586182
56,,1.9240996837615967,1.2243107557296753,5.19866418838501,7.457733154296875,1.1646713018417358,3.999937057495117,3.609860420227051,2.161597728729248,1.2433338165283203,2.2434346675872803,1.4829397201538086,1.26356840133667,3.129361629486084,2.211540937423706,,,,3.314039707183838,1.9933024644851685,2.9042274951934814,2.7735848426818848,1.0312836170196533,5.359565734863281,1.3406730890274048,2.060319423675537,2.8882598876953125,2.338350534439087,2.4595742225646973,2.335726499557495,2.525895357131958,2.358916759490967,,9.017939567565918,2.4746992588043213,6.619201183319092,3.04666805267334,5.18636417388916,4.637053966522217
57,,1.9231815338134766,1.2194002866744995,5.204831123352051,7.443000793457031,1.1646713018417358,3.9875710010528564,3.6060428619384766,2.1520752906799316,1.26157808303833,2.257723569869995,1.486592173576355,1.2691556215286255,3.1302945613861084,2.1999969482421875,,,,3.2723910808563232,1.9863537549972534,2.905139446258545,2.776400327682495,1.0262975692749023,5.360455513000488,1.344175934791565,2.0528199672698975,2.881124496459961,2.339237689971924,2.455033302307129,2.335726499557495,2.5619523525238037,2.333742141723633,,8.977731704711914,2.4598093032836914,6.623956680297852,3.021710157394409,5.221804141998291,4.637988090515137
58,,1.9158374071121216,1.208761215209961,5.163418292999268,7.347247123718262,1.1459819078445435,3.971083164215088,3.5516366958618164,2.1520752906799316,1.2405974864959717,2.1938979625701904,1.4582849740982056,1.2691556215286255,3.127495527267456,2.1528613567352295,,,,3.16331148147583,1.9575660228729248,2.903316020965576,2.776400327682495,1.0254665613174438,5.3622355461120605,1.3503059148788452,2.048133611679077,2.877556800842285,2.3170526027679443,2.452308416366577,2.334807872772217,2.5477190017700195,2.333742141723633,,8.827183723449707,2.4171249866485596,6.509831428527832,2.99582839012146,5.130406856536865,4.55583381652832
59,,1.9039037227630615,1.2079428434371948,5.175753593444824,7.305815696716309,1.1451327800750732,3.9463515281677246,3.560227155685425,2.1482667922973633,1.2360363006591797,2.186277151107788,1.4564584493637085,1.2626374959945679,3.1246962547302246,2.1528613567352295,,,,3.1811606884002686,1.9674928188323975,2.902404308319092,2.7745234966278076,1.0287907123565674,5.36490535736084,1.3555599451065063,2.0500078201293945,2.8953959941864014,2.3188271522521973,2.4586660861968994,2.3320510387420654,2.571441411972046,2.322553873062134,,8.902925491333008,2.4101762771606445,6.506978988647461,3.0087697505950928,5.166778564453125,4.609046936035156
60,,1.8726922273635864,1.181754469871521,5.1105499267578125,7.183361530303955,1.131540298461914,3.8597912788391113,3.4838685989379883,2.127316951751709,1.2360363006591797,2.1786558628082275,1.4272381067276,1.2626374959945679,3.1246962547302246,2.136507987976074,,,,3.160336494445801,1.96352219581604,2.9005799293518066,2.776400327682495,1.0229734182357788,5.3622355461120605,1.3397974967956543,2.0246994495391846,2.8659605979919434,2.2673566341400146,2.4305102825164795,2.33756422996521,2.526844024658203,2.314162492752075,,8.776689529418945,2.3883378505706787,6.409973621368408,2.9736437797546387,5.120146751403809,4.538095474243164
61,,1.8772822618484497,1.1809359788894653,5.051515102386475,7.256097316741943,1.1281423568725586,3.8259904384613037,3.4762325286865234,2.134934902191162,1.2314753532409668,2.122451066970825,1.4171935319900513,1.2644999027252197,3.129361629486084,2.116307258605957,,,,3.1543867588043213,1.9516099691390991,2.903316020965576,2.775461196899414,1.021311640739441,5.304385662078857,1.3231596946716309,2.0378224849700928,2.849904775619507,2.273568868637085,2.424152135848999,2.340320110321045,2.5088160037994385,2.2833938598632812,,8.674765586853027,2.37146258354187,6.403315544128418,2.9172582626342773,5.045536994934082,4.46247673034668
62,,1.875446081161499,1.1563842296600342,4.94225549697876,7.054462432861328,1.104356288909912,3.754268169403076,3.4218270778656006,2.0911316871643066,1.212319016456604,2.09291934967041,1.3897993564605713,1.2626374959945679,3.1302945613861084,2.0826382637023926,,,,3.1484367847442627,1.9535953998565674,2.905139446258545,2.7745234966278076,1.0071842670440674,5.234966278076172,1.3170297145843506,2.007826566696167,2.809765100479126,2.2300853729248047,2.3978123664855957,2.3366451263427734,2.4452412128448486,2.2377073764801025,,8.581255912780762,2.338704824447632,6.311066150665283,2.883981704711914,4.955071926116943,4.38218879699707
63,,1.87636399269104,1.171933650970459,5.052396297454834,7.130880832672119,1.1128511428833008,3.7790005207061768,3.4571428298950195,2.1016063690185547,1.2296510934829712,2.050051212310791,1.378841757774353,1.2589126825332642,3.129361629486084,2.076866388320923,,,,3.1385204792022705,1.9516099691390991,2.9042274951934814,2.7745234966278076,1.0080153942108154,5.226956367492676,1.3161541223526,1.9825180768966675,2.807981491088867,2.238072156906128,2.3823719024658203,2.3338887691497803,2.419621467590332,2.250760793685913,,8.526087760925293,2.329770803451538,6.273024082183838,2.848856210708618,4.975589752197266,4.387790679931641
64,,1.86443030834198,1.169478416442871,4.978381633758545,7.030524253845215,1.1204968690872192,3.7452006340026855,3.4313719272613525,2.1054158210754395,1.218704342842102,2.0910146236419678,1.3861467838287354,1.2644999027252197,3.129361629486084,2.0499322414398193,,,,3.1246376037597656,1.966500163078308,2.903316020965576,2.776400327682495,1.0013673305511475,5.206485748291016,1.3100242614746094,1.9853299856185913,2.7928173542022705,2.236297369003296,2.376013994216919,2.335726499557495,2.419621467590332,2.2535581588745117,,8.51392936706543,2.323815107345581,6.250199317932129,2.880284309387207,4.969994068145752,4.41859769821167
65,,1.8901340961456299,1.1940302848815918,5.101739406585693,7.237682819366455,1.1493799686431885,3.884521722793579,3.474323272705078,2.1292219161987305,1.233299732208252,2.1119720935821533,1.4053226709365845,1.2654308080673218,3.1265621185302734,2.0989913940429688,,,,3.1414954662323,1.9823830127716064,2.902404308319092,2.776400327682495,1.0071842670440674,5.233185291290283,1.3161541223526,1.9956412315368652,2.8195769786834717,2.276231050491333,2.3832805156707764,2.335726499557495,2.4993271827697754,2.275002956390381,,8.652322769165039,2.3486313819885254,6.258758544921875,2.953308343887329,5.054863929748535,4.483015060424805
66,,1.9277713298797607,1.185027837753296,5.053277492523193,7.319626331329346,1.156175971031189,3.8037326335906982,3.560227155685425,2.1101768016815186,1.2269142866134644,2.1643662452697754,1.4226725101470947,1.26356840133667,3.129361629486084,2.1355462074279785,,,,3.210909605026245,1.9952878952026367,2.905139446258545,2.7773375511169434,1.0121705532073975,5.215386390686035,1.3161541223526,2.020012617111206,2.8276050090789795,2.271793842315674,2.4096202850341797,2.3237812519073486,2.502173662185669,2.28059720993042,,8.783234596252441,2.337712287902832,6.309163570404053,3.006920337677002,5.1024274826049805,4.538095474243164
67,,1.9020676612854004,1.1956669092178345,5.097333908081055,7.441159248352051,1.1723166704177856,3.816922426223755,3.5945887565612793,2.1625499725341797,1.260665774345398,2.1700820922851562,1.4555453062057495,1.2654308080673218,3.127495527267456,2.1576714515686035,,,,3.286273717880249,1.9615367650985718,2.90149188041687,2.7773375511169434,1.0130012035369873,5.233185291290283,1.3249109983444214,2.0284485816955566,2.840984582901001,2.31616473197937,2.4214274883270264,2.3292946815490723,2.5647990703582764,2.3122973442077637,,8.818767547607422,2.428044319152832,6.514586925506592,2.9625515937805176,5.107090950012207,4.527825832366943
68,,1.9286895990371704,1.2071243524551392,5.139627933502197,7.586631774902344,1.1774137020111084,3.8935904502868652,3.599360942840576,2.170168161392212,1.2652267217636108,2.190087080001831,1.4573718309402466,1.2644999027252197,3.1368255615234375,2.151899814605713,,,,3.2753658294677734,2.0052146911621094,2.9069631099700928,2.7735848426818848,1.0321146249771118,5.314175128936768,1.3284136056900024,2.048133611679077,2.8677444458007812,2.336575508117676,2.4405012130737305,2.317349672317505,2.572390079498291,2.3421337604522705,,8.902925491333008,2.400249719619751,6.576404571533203,2.9717955589294434,5.175172328948975,4.572637557983398
69,,1.9360332489013672,1.2308577299118042,5.225979328155518,7.734865188598633,1.1876076459884644,4.002409934997559,3.658539056777954,2.202544689178467,1.277085304260254,2.2215240001678467,1.4646766185760498,1.2607752084732056,3.13962459564209,2.194225549697876,,,,3.320981025695801,2.029038906097412,2.90149188041687,2.775461196899414,1.0379316806793213,5.378255367279053,1.3380460739135742,2.079066038131714,2.907883644104004,2.377396821975708,2.4795563220977783,2.331132411956787,2.590418577194214,2.345863103866577,,9.025422096252441,2.4538533687591553,6.68196964263916,2.993055582046509,5.21527624130249,4.613715171813965
70,,1.9736709594726562,1.2259474992752075,5.4057297706604,7.503767967224121,1.237728476524353,4.0353851318359375,3.6843101978302,2.207305669784546,1.2597538232803345,2.2358133792877197,1.4911580085754395,1.2570505142211914,3.1386914253234863,2.17594838142395,,,,3.264457941055298,2.0280463695526123,2.9005799293518066,2.775461196899414,1.0528900623321533,5.464585304260254,1.359062671661377,2.0715672969818115,2.970323085784912,2.38360857963562,2.4868223667144775,2.311836004257202,2.5970606803894043,2.3673081398010254,,8.883289337158203,2.4320149421691895,6.432797908782959,3.0596089363098145,5.206882476806641,4.643588542938232
71,,1.9516388177871704,1.233312726020813,5.464765548706055,7.50008487701416,1.2334809303283691,4.0197224617004395,3.569772481918335,2.1339828968048096,1.233299732208252,2.253913164138794,1.4938974380493164,1.2561192512512207,3.1330933570861816,2.174024820327759,,,,3.184135675430298,2.0280463695526123,2.8932859897613525,2.7773375511169434,1.0545519590377808,5.471704959869385,1.359062671661377,2.0865652561187744,2.9792428016662598,2.4164435863494873,2.4877307415008545,2.3054044246673584,2.5534121990203857,2.3300130367279053,,8.873937606811523,2.3823821544647217,6.325331211090088,3.0670034885406494,5.15278959274292,4.673463344573975
72,,1.9654090404510498,1.2169450521469116,5.4171833992004395,7.494561195373535,1.231782078742981,3.972731590270996,3.579317092895508,2.1501712799072266,1.2360363006591797,2.2672502994537354,1.5012024641036987,1.2644999027252197,3.131227731704712,2.181720733642578,,,,3.2039682865142822,2.0478999614715576,2.884167194366455,2.775461196899414,1.0653550624847412,5.467255592346191,1.3564355373382568,2.097813606262207,2.987271308898926,2.3871586322784424,2.510437250137329,2.3054044246673584,2.6359643936157227,2.3570516109466553,,8.873937606811523,2.427051544189453,6.395708084106445,3.068852186203003,5.202219009399414,4.672530651092529
73,,1.9599008560180664,1.2194002866744995,5.41630220413208,7.524943828582764,1.2190395593643188,3.994166135787964,3.602224349975586,2.178738594055176,1.2515437602996826,2.2767763137817383,1.511246919631958,1.2654308080673218,3.134026527404785,2.203845262527466,,,,3.2495834827423096,2.046907424926758,2.8850789070129395,2.775461196899414,1.0628619194030762,5.4307661056518555,1.3450517654418945,2.11374831199646,2.9881627559661865,2.3880460262298584,2.510437250137329,2.306323289871216,2.566696882247925,2.3561196327209473,,8.882353782653809,2.413154363632202,6.398561000823975,3.0633060932159424,5.157452583312988,4.672530651092529
74,,1.9837684631347656,1.233312726020813,5.507059097290039,7.614253044128418,1.2487720251083374,4.065887928009033,3.6203601360321045,2.1977834701538086,1.2634024620056152,2.303450107574463,1.5368149280548096,1.26356840133667,3.1368255615234375,2.2057695388793945,,,,3.2733829021453857,2.044921875,2.885991096496582,2.7773375511169434,1.0636930465698242,5.432545185089111,1.349429965019226,2.128746747970581,2.9908390045166016,2.4244306087493896,2.5149786472320557,2.3081610202789307,2.6074981689453125,2.3999409675598145,,9.045058250427246,2.4538533687591553,6.483202934265137,3.1243133544921875,5.280560493469238,4.757485389709473
75,,1.9947847127914429,1.233312726020813,5.559926509857178,7.566375732421875,1.252170205116272,4.079078674316406,3.6270411014556885,2.2034966945648193,1.2542804479599,2.2796339988708496,1.5322492122650146,1.2589126825332642,3.1386914253234863,2.207693099975586,,,,3.2138845920562744,2.0548486709594727,2.885991096496582,2.775461196899414,1.0587069988250732,5.437885284423828,1.3511815071105957,2.11374831199646,2.9926228523254395,2.4315295219421387,2.508620500564575,2.2989728450775146,2.637862205505371,2.392482280731201,,9.004849433898926,2.456831216812134,6.430896759033203,3.1132214069366455,5.264704704284668,4.763086795806885
76,,2.0002920627593994,1.2349497079849243,5.640109062194824,7.525864601135254,1.258116602897644,4.065063953399658,3.6528122425079346,2.204448938369751,1.2688754796981812,2.2967817783355713,1.5231178998947144,1.259844183921814,3.137758731842041,2.216350793838501,,,,3.2307424545288086,2.0786731243133545,2.8814315795898438,2.7773375511169434,1.0553830862045288,5.418305397033691,1.3581868410110474,2.085627794265747,2.978350877761841,2.4368538856506348,2.4977214336395264,2.3072423934936523,2.656839370727539,2.3691725730895996,,9.013265609741211,2.454846143722534,6.454672336578369,3.1428005695343018,5.316932678222656,4.796695232391357
77,,1.9681628942489624,1.2308577299118042,5.662137985229492,7.526784896850586,1.2402770519256592,4.04115629196167,3.6318137645721436,2.1901655197143555,1.2634024620056152,2.253913164138794,1.5276834964752197,1.266362190246582,3.1424238681793213,2.196150064468384,,,,3.2019851207733154,2.053856134414673,2.8832554817199707,2.775461196899414,1.0470727682113647,5.401395320892334,1.347678780555725,2.073441982269287,2.9658634662628174,2.415555953979492,2.482280969619751,2.3099985122680664,2.629322052001953,2.3626458644866943,,8.902925491333008,2.4389636516571045,6.388099670410156,3.08918833732605,5.241389751434326,4.7696213722229
78,,1.9828506708145142,1.2341312170028687,5.718529224395752,7.56177282333374,1.2487720251083374,3.999112606048584,3.6299045085906982,2.1730246543884277,1.2597538232803345,2.274871349334717,1.511246919631958,1.261705994606018,3.1424238681793213,2.1826822757720947,,,,3.1950435638427734,2.0488924980163574,2.882343292236328,2.7773375511169434,1.0437488555908203,5.400505065917969,1.3520572185516357,2.0612566471099854,2.943563461303711,2.440403699874878,2.473198413848877,2.313673973083496,2.673919439315796,2.3784966468811035,,8.866458892822266,2.3962793350219727,6.398561000823975,3.049440860748291,5.241389751434326,4.742547988891602
79,,1.9846863746643066,1.2423151731491089,5.713243007659912,7.524023532867432,1.231782078742981,4.074132442474365,3.661402702331543,2.1977834701538086,1.255192756652832,2.2843971252441406,1.5249439477920532,1.266362190246582,3.1442902088165283,2.185568332672119,,,,3.200993299484253,2.0617973804473877,2.8850789070129395,2.7773375511169434,1.0487347841262817,5.424535274505615,1.3415489196777344,2.0565695762634277,2.9587273597717285,2.443953275680542,2.462299108505249,2.3127551078796387,2.664430856704712,2.3617138862609863,,8.844949722290039,2.4230809211730957,6.3367438316345215,3.064230442047119,5.247917652130127,4.780824661254883
80,,2.0058000087738037,1.252954363822937,5.792544841766357,7.535992622375488,1.2343305349349976,4.0955657958984375,3.690037488937378,2.2158758640289307,1.2588413953781128,2.2615344524383545,1.5295097827911377,1.267293095588684,3.1442902088165283,2.1999969482421875,,,,3.257516622543335,2.0846290588378906,2.8850789070129395,2.7773375511169434,1.0445798635482788,5.408515930175781,1.329289197921753,2.07625412940979,2.9614033699035645,2.4572646617889404,2.4704737663269043,2.3081610202789307,2.69669246673584,2.397144317626953,,8.894510269165039,2.4310221672058105,6.403315544128418,3.1095237731933594,5.302011013031006,4.866713047027588
81,,2.0195701122283936,1.26686692237854,5.92383337020874,7.560851573944092,1.2632137537002563,4.204384803771973,3.693855047225952,2.231112003326416,1.277085304260254,2.303450107574463,1.5459463596343994,1.266362190246582,3.1452231407165527,2.191340208053589,,,,3.231734037399292,2.1084535121917725,2.8768723011016846,2.775461196899414,1.0537208318710327,5.424535274505615,1.3222838640213013,2.091251850128174,2.9908390045166016,2.4838874340057373,2.4959049224853516,2.2952969074249268,2.702385663986206,2.4213857650756836,,8.963706970214844,2.4608020782470703,6.409973621368408,3.145573854446411,5.334652900695801,4.929263591766357
82,,1.992948293685913,1.2709589004516602,5.837482452392578,7.492718696594238,1.2445247173309326,4.182126522064209,3.6976733207702637,2.2054011821746826,1.2734366655349731,2.292017936706543,1.5413806438446045,1.2691556215286255,3.1470885276794434,2.207693099975586,,,,3.153395175933838,2.0697388648986816,2.8768723011016846,2.7773375511169434,1.0562139749526978,5.414745330810547,1.3214081525802612,2.091251850128174,2.9854869842529297,2.468801259994507,2.490455389022827,2.3035662174224854,2.6995389461517334,2.376631498336792,,8.911341667175293,2.448890209197998,6.445160865783691,3.129859685897827,5.323461055755615,4.863912582397461
83,,1.9998207092285156,1.2521358728408813,5.792544841766357,7.473383903503418,1.2445247173309326,4.154922008514404,3.7057132720947266,2.215278387069702,1.2735284566879272,2.2928552627563477,1.5257984399795532,1.263685941696167,3.158071994781494,2.213158369064331,,,,3.1861190795898438,2.0866146087646484,2.8903632164001465,2.779543161392212,1.0545519590377808,5.418305397033691,1.3327921628952026,2.0968761444091797,2.970323085784912,2.4524922370910645,2.48954701423645,2.346848249435425,2.7126572132110596,2.4060709476470947,,8.949262619018555,2.4389636516571045,6.416784763336182,3.1058266162872314,5.357051849365234,4.881798267364502
84,,2.023837089538574,1.2504990100860596,5.727341651916504,7.4448418617248535,1.2411266565322876,4.120297431945801,3.7334601879119873,2.2257909774780273,1.271693468093872,2.2727930545806885,1.5294708013534546,1.2702382802963257,3.1599507331848145,2.200610637664795,,,,3.2466084957122803,2.096541404724121,2.8903632164001465,2.778602361679077,1.0553830862045288,5.384485721588135,1.326662302017212,2.116560459136963,2.9837028980255127,2.4327573776245117,2.509528875350952,2.3487284183502197,2.710752010345459,2.384504556655884,,8.968157768249512,2.4389636516571045,6.455935001373291,3.0965828895568848,5.327846527099609,4.881798267364502
85,,1.976728081703186,1.2572749853134155,5.783733367919922,7.535748481750488,1.2427791357040405,4.173689842224121,3.766948699951172,2.186607837677002,1.2469202280044556,2.283301830291748,1.5276345014572144,1.2646222114562988,3.159010887145996,2.213158369064331,,,,3.252558469772339,2.073709726333618,2.8958849906921387,2.780484676361084,1.0661576986312866,5.425263404846191,1.338623046875,2.1249425411224365,3.0058393478393555,2.449800968170166,2.5218677520751953,2.3506078720092773,2.7098000049591064,2.400444984436035,,9.047523498535156,2.4518680572509766,6.496039867401123,3.1159780025482178,5.374953269958496,4.878027439117432
86,,2.0035154819488525,1.2605986595153809,5.707076072692871,7.4866108894348145,1.2341904640197754,4.193795204162598,3.745898723602295,2.1732280254364014,1.2570128440856934,2.2957212924957275,1.5340609550476074,1.2683663368225098,3.158071994781494,2.2083323001861572,,,,3.228759288787842,2.0697388648986816,2.8968048095703125,2.780484676361084,1.0644681453704834,5.437875270843506,1.330649971961975,2.1249425411224365,3.0022330284118652,2.4237868785858154,2.5154669284820557,2.3459091186523438,2.714561939239502,2.3816914558410645,,9.013508796691895,2.4111690521240234,6.451160907745361,3.0926754474639893,5.333498954772949,4.855400085449219
87,,2.015523910522461,1.288021206855774,5.726459503173828,7.528331756591797,1.2470734119415283,4.398207664489746,3.760251045227051,2.198076009750366,1.2661880254745483,2.3004982471466064,1.5496678352355957,1.267430305480957,3.158071994781494,2.213158369064331,,,,3.2495834827423096,2.068746328353882,2.8949646949768066,2.780484676361084,1.0703818798065186,5.4730119705200195,1.3350794315338135,2.0975542068481445,2.9941189289093018,2.4533884525299072,2.5063226222991943,2.347788095474243,2.707894802093506,2.408884048461914,,9.06358528137207,2.4439268112182617,6.493175983428955,3.1150460243225098,5.332556247711182,4.880856037139893
88,,2.013676643371582,1.3038098812103271,5.7978315353393555,7.556146144866943,1.255661964416504,4.4400954246521,3.7908687591552734,2.2363035678863525,1.2882088422775269,2.3024086952209473,1.5432415008544922,1.2693023681640625,3.1552534103393555,2.2237751483917236,,,,3.255533218383789,2.052863359451294,2.8931241035461426,2.778602361679077,1.0737611055374146,5.4730119705200195,1.334193468093872,2.0871658325195312,3.015756607055664,2.472227096557617,2.505408525466919,2.3412089347839355,2.7098000049591064,2.423887014389038,,9.018235206604004,2.455838680267334,6.513227462768555,3.101996421813965,5.36082124710083,4.917624473571777
89,,2.0339980125427246,1.3179365396499634,5.803999423980713,7.627535343170166,1.2625328302383423,4.523870468139648,3.7985239028930664,2.252549886703491,1.293713927268982,2.3339357376098633,1.5551761388778687,1.267430305480957,3.1618292331695557,2.239217519760132,,,,3.3318889141082764,2.089592456817627,2.8949646949768066,2.779543161392212,1.0720715522766113,5.474813938140869,1.3315356969833374,2.0862209796905518,3.0103468894958496,2.484785556793213,2.5008363723754883,2.336510419845581,2.7602810859680176,2.4492037296295166,,9.122161865234375,2.4816479682922363,6.4941301345825195,3.1318233013153076,5.447498798370361,4.970421314239502
90,,2.0229134559631348,1.316274642944336,5.815454006195068,7.612700939178467,1.2505089044570923,4.512979984283447,3.76886248588562,2.2573282718658447,1.2983016967773438,2.308140754699707,1.5616024732589722,1.263685941696167,3.158071994781494,2.2353572845458984,,,,3.3745293617248535,2.0647754669189453,2.8912837505340576,2.778602361679077,1.087278127670288,5.481119632720947,1.3209047317504883,2.099443197250366,3.0400991439819336,2.4892704486846924,2.5172955989837646,2.344029188156128,2.7374212741851807,2.4379518032073975,,9.09476375579834,2.475691795349121,6.580069065093994,3.1262309551239014,5.449382781982422,5.010018348693848
91,,2.0229134559631348,1.3237534761428833,5.850698947906494,7.690580368041992,1.2530854940414429,4.517168998718262,3.824357271194458,2.2286579608917236,1.2882088422775269,2.318650245666504,1.5680288076400757,1.2702382802963257,3.1637074947357178,2.2343921661376953,,,,3.358663320541382,2.059812068939209,2.8940446376800537,2.778602361679077,1.1016401052474976,5.540579319000244,1.3359652757644653,2.1372199058532715,3.081571102142334,2.5116963386535645,2.5474698543548584,2.3383896350860596,2.7240867614746094,2.445453643798828,,9.163735389709473,2.4806551933288574,6.552377700805664,3.1635146141052246,5.473878860473633,5.049615859985352
92,,2.0321505069732666,1.3470209836959839,5.887707233428955,7.583033561706543,1.2530854940414429,4.533923625946045,3.845407247543335,2.248727560043335,1.275363564491272,2.3243820667266846,1.5560941696166992,1.2702382802963257,3.164646625518799,2.219914197921753,,,,3.361638307571411,2.0558414459228516,2.8949646949768066,2.780484676361084,1.1058642864227295,5.556795597076416,1.3288779258728027,2.139108657836914,3.083374500274658,2.5134904384613037,2.5401556491851807,2.344968795776367,2.747898817062378,2.415447950363159,,9.074922561645508,2.454846143722534,6.493175983428955,3.1802923679351807,5.441845893859863,5.047729969024658
93,,2.0127525329589844,1.341204047203064,5.844531536102295,7.645151138305664,1.2496501207351685,4.607645511627197,3.764078378677368,2.2363035678863525,1.2790335416793823,2.308140754699707,1.542323350906372,1.2646222114562988,3.164646625518799,2.213158369064331,,,,3.373537540435791,2.0548486709594727,2.8958849906921387,2.778602361679077,1.1041744947433472,5.5423808097839355,1.3368512392044067,2.1400530338287354,3.0779647827148438,2.501829147338867,2.5538711547851562,2.349668025970459,2.717419385910034,2.4145100116729736,,8.975716590881348,2.442934036254883,6.435881614685059,3.136483907699585,5.396622180938721,5.033588409423828
94,,2.046005964279175,1.3461899757385254,5.912378787994385,7.659985065460205,1.267686128616333,4.561569690704346,3.791825771331787,2.2554171085357666,1.275363564491272,2.284257173538208,1.542323350906372,1.2721107006072998,3.1684038639068604,2.2228097915649414,,,,3.40130352973938,2.0796656608581543,2.8949646949768066,2.779543161392212,1.1016401052474976,5.573012351989746,1.3297637701034546,2.129664421081543,3.084275960922241,2.507211208343506,2.546555757522583,2.349668025970459,2.725039482116699,2.4191982746124268,,8.994613647460938,2.456831216812134,6.483625888824463,3.116910219192505,5.4126386642456055,5.032644748687744
95,,2.0450823307037354,1.3279083967208862,5.916783809661865,7.695216655731201,1.2771337032318115,4.448472499847412,3.7956526279449463,2.2286579608917236,1.2698581218719482,2.277569532394409,1.5478317737579346,1.271174669265747,3.1721622943878174,2.221844434738159,,,,3.4260942935943604,2.060804843902588,2.8958849906921387,2.779543161392212,1.0931918621063232,5.540579319000244,1.3350794315338135,2.1192758083343506,3.066244602203369,2.4955499172210693,2.541069507598877,2.3487284183502197,2.7212295532226562,2.422011613845825,,8.949262619018555,2.434993028640747,6.486490726470947,3.101064443588257,5.38625955581665,5.021332263946533
96,,2.0376927852630615,1.3395421504974365,5.949386119842529,7.801836013793945,1.2814278602600098,4.530571937561035,3.8272275924682617,2.2363035678863525,1.2827037572860718,2.313872814178467,1.5505857467651367,1.2702382802963257,3.171222448348999,2.2237751483917236,,,,3.394362211227417,2.0846290588378906,2.8977251052856445,2.780484676361084,1.0923470258712769,5.543281555175781,1.3403949737548828,2.1249425411224365,3.065343141555786,2.529636859893799,2.5419838428497314,2.344029188156128,2.7421839237213135,2.4191982746124268,,9.024847984313965,2.4518680572509766,6.493175983428955,3.1075892448425293,5.408870697021484,5.05338716506958
97,,2.0303027629852295,1.3486828804016113,5.982868671417236,7.917727947235107,1.2719804048538208,4.589215278625488,3.8272275924682617,2.2449045181274414,1.290043830871582,2.3272480964660645,1.565274715423584,1.2683663368225098,3.1740403175354004,2.2295658588409424,,,,3.3765125274658203,2.0786731243133545,2.8968048095703125,2.781425952911377,1.0999504327774048,5.560399532318115,1.3412809371948242,2.1372199058532715,3.0752601623535156,2.538607358932495,2.5556998252868652,2.340269088745117,2.7450411319732666,2.4417028427124023,,9.041852951049805,2.4598093032836914,6.525640487670898,3.123434543609619,5.430539131164551,5.061872959136963
98,,2.065403938293457,1.3578237295150757,5.921189785003662,7.917727947235107,1.258238673210144,4.6193742752075195,3.875068426132202,2.2621068954467773,1.3038067817687988,2.332980155944824,1.5827176570892334,1.2655580043792725,3.170283079147339,2.2160532474517822,,,,3.4389853477478027,2.0985267162323,2.8912837505340576,2.779543161392212,1.0974160432815552,5.533372402191162,1.3395090103149414,2.0767769813537598,3.048213481903076,2.5251517295837402,2.505408525466919,2.3383896350860596,2.759329080581665,2.452016830444336,,9.079645156860352,2.4727139472961426,6.579113483428955,3.1280953884124756,5.475762367248535,5.120326042175293
99,,2.059861660003662,1.36696457862854,5.876252174377441,7.8546833992004395,1.2513675689697266,4.649533271789551,3.8942041397094727,2.249683141708374,1.3056418895721436,2.3301141262054443,1.578127384185791,1.2646222114562988,3.1721622943878174,2.2479043006896973,,,,3.4756760597229004,2.0985267162323,2.8903632164001465,2.781425952911377,1.1033296585083008,5.522561073303223,1.3350794315338135,2.071110486984253,3.0419020652770996,2.5161819458007812,2.501750946044922,2.342149257659912,2.7450411319732666,2.452016830444336,,9.054136276245117,2.4786698818206787,6.567655086517334,3.123434543609619,5.474821090698242,5.11749792098999
100,,2.0339980125427246,1.3470209836959839,5.822502613067627,7.771240711212158,1.2419202327728271,4.569945812225342,3.835839033126831,2.2382149696350098,1.280868649482727,2.280435562133789,1.5459955930709839,1.2683663368225098,3.1731014251708984,2.213158369064331,,,,3.48460054397583,2.045914649963379,2.8922040462493896,2.781425952911377,1.115156888961792,5.566705703735352,1.343052625656128,2.1060540676116943,3.081571102142334,2.5027263164520264,2.5346686840057373,2.340269088745117,2.728849172592163,2.445453643798828,,9.117439270019531,2.4608020782470703,6.645955562591553,3.10386061668396,5.489895343780518,5.142010688781738
101,,2.0321505069732666,1.3495137691497803,5.871846675872803,7.80832576751709,1.2505089044570923,4.560730934143066,3.8846359252929688,2.205721616744995,1.2799510955810547,2.2966763973236084,1.5478317737579346,1.2655580043792725,3.170283079147339,2.2179839611053467,,,,3.573847770690918,2.0548486709594727,2.8894433975219727,2.781425952911377,1.1362775564193726,5.637876987457275,1.3527977466583252,2.1381642818450928,3.1176340579986572,2.5107991695404053,2.5529565811157227,2.3355705738067627,2.7412314414978027,2.4191982746124268,,9.086259841918945,2.4598093032836914,6.626857757568359,3.10386061668396,5.544539451599121,5.153324127197266
102,,2.0497007369995117,1.3619786500930786,5.909734725952148,7.869517803192139,1.2702627182006836,4.607645511627197,3.9133400917053223,2.2439489364624023,1.2927964925765991,2.3253374099731445,1.5790454149246216,1.271174669265747,3.1759190559387207,2.245974063873291,,,,3.5728559494018555,2.0786731243133545,2.8931241035461426,2.779543161392212,1.1481049060821533,5.645083904266357,1.3465962409973145,2.166496753692627,3.146484375,2.5269463062286377,2.587702751159668,2.336510419845581,2.73646879196167,2.4492037296295166,,9.095707893371582,2.4806551933288574,6.5819783210754395,3.116910219192505,5.491779804229736,5.195749282836914
103,,2.073716878890991,1.3619786500930786,5.937931537628174,7.883423328399658,1.2882988452911377,4.602619171142578,3.914297580718994,2.2382149696350098,1.2927964925765991,2.3559091091156006,1.5946521759033203,1.2721107006072998,3.1749796867370605,2.2411484718322754,,,,3.5768227577209473,2.0786731243133545,2.8931241035461426,2.781425952911377,1.177673578262329,5.70094108581543,1.3572274446487427,2.1995513439178467,3.2050867080688477,2.536813259124756,2.6224496364593506,2.334630250930786,2.7755205631256104,2.4707705974578857,,9.175071716308594,2.4796624183654785,6.696564197540283,3.106656789779663,5.5002593994140625,5.191035747528076
104,,2.07279372215271,1.3544999361038208,5.835720062255859,7.855610370635986,1.2633917331695557,4.570784091949463,3.898031234741211,2.2573282718658447,1.2891263961791992,2.3482658863067627,1.5928162336349487,1.2721107006072998,3.1749796867370605,2.2247400283813477,,,,3.4717092514038086,2.1154022216796875,2.8940446376800537,2.781425952911377,1.177673578262329,5.736978054046631,1.3731738328933716,2.185385227203369,3.2014803886413574,2.507211208343506,2.6224496364593506,2.3355705738067627,2.7717108726501465,2.420135974884033,,9.082481384277344,2.482640504837036,6.588663101196289,3.0768299102783203,5.432424068450928,5.0986409187316895
105,,2.0700225830078125,1.3586547374725342,5.886826515197754,7.8500471115112305,1.2840046882629395,4.634453773498535,3.893247127532959,2.2783539295196533,1.2983016967773438,2.3501768112182617,1.5790454149246216,1.2702382802963257,3.1749796867370605,2.240183115005493,,,,3.455843210220337,2.0846290588378906,2.8931241035461426,2.781425952911377,1.1751389503479004,5.711751937866211,1.3678584098815918,2.1768853664398193,3.2068898677825928,2.501829147338867,2.621535301208496,2.3355705738067627,2.781235694885254,2.4426400661468506,,9.046578407287598,2.463780164718628,6.587707996368408,3.0758979320526123,5.426771640777588,5.108069896697998
106,,2.0497007369995117,1.3677955865859985,5.785495758056641,7.9186553955078125,1.2651094198226929,4.751739501953125,3.881765842437744,2.3012897968292236,1.309312105178833,2.331069231033325,1.583635687828064,1.267430305480957,3.177797794342041,2.2035064697265625,,,,3.462784767150879,2.096541404724121,2.8931241035461426,2.781425952911377,1.181897521018982,5.6937336921691895,1.3731738328933716,2.209940195083618,3.209594249725342,2.5269463062286377,2.6343367099761963,2.3412089347839355,2.7755205631256104,2.445453643798828,,9.02862548828125,2.4260590076446533,6.493175983428955,3.0758979320526123,5.38720178604126,5.0156755447387695
107,,2.073716878890991,1.3520069122314453,5.773160457611084,7.903820037841797,1.2565209865570068,4.7609543800354,3.875068426132202,2.3003342151641846,1.2983016967773438,2.3262925148010254,1.5606844425201416,1.2730467319488525,3.182494640350342,2.214122772216797,,,,3.4399771690368652,2.0617973804473877,2.8968048095703125,2.781425952911377,1.205552339553833,5.746887683868408,1.368744134902954,2.2288284301757812,3.228527545928955,2.4955499172210693,2.653538465499878,2.3374500274658203,2.7717108726501465,2.407008409500122,,8.88123607635498,2.4260590076446533,6.445431709289551,3.085218906402588,5.348572731018066,5.036416530609131
108,,2.07279372215271,1.4010348320007324,5.938812255859375,7.953886032104492,1.261674165725708,4.9360456466674805,3.8875062465667725,2.315624952316284,1.309312105178833,2.368328332901001,1.5808814764022827,1.2664941549301147,3.1618292331695557,2.2295658588409424,,,,3.4756760597229004,2.1005120277404785,2.8931241035461426,2.779543161392212,1.2486380338668823,5.782022476196289,1.366086721420288,2.2788827419281006,3.290735960006714,2.5323281288146973,2.696514368057251,2.331810474395752,2.746946334838867,2.4210739135742188,,9.01917839050293,2.4588167667388916,6.4311089515686035,3.11970591545105,5.419233798980713,5.1655802726745605
109,,2.0801830291748047,1.3960487842559814,5.9696526527404785,7.934415340423584,1.2444967031478882,4.942748069763184,3.9544827938079834,2.314669609069824,1.3074768781661987,2.363551378250122,1.5882259607315063,1.267430305480957,3.171222448348999,2.2372875213623047,,,,3.5302157402038574,2.090585231781006,2.8922040462493896,2.782367467880249,1.2283624410629272,5.731572151184082,1.354569673538208,2.2760496139526367,3.2546730041503906,2.5421953201293945,2.6699976921081543,2.324291706085205,2.8079049587249756,2.4576430320739746,,9.141057968139648,2.4816479682922363,6.529460430145264,3.188681125640869,5.5087385177612305,5.296628952026367
110,,2.122673749923706,1.3960487842559814,5.992560863494873,7.908457279205322,1.2350491285324097,4.88913106918335,4.018589019775391,2.3796563148498535,1.336837649345398,2.37214994430542,1.5974063873291016,1.2664941549301147,3.1731014251708984,2.277825117111206,,,,3.590705394744873,2.135255813598633,2.8922040462493896,2.782367467880249,1.204707384109497,5.729770183563232,1.3519119024276733,2.2203285694122314,3.2186100482940674,2.55206298828125,2.6398229598999023,2.3299307823181152,2.8269543647766113,2.5110905170440674,,9.204361915588379,2.4866113662719727,6.596301555633545,3.1970696449279785,5.5671515464782715,5.309828281402588
111,,2.1356053352355957,1.3943870067596436,6.065694808959961,7.8964033126831055,1.2324726581573486,4.90672492980957,4.052077293395996,2.3787004947662354,1.3460131883621216,2.37214994430542,1.5854718685150146,1.2693023681640625,3.171222448348999,2.2942333221435547,,,,3.5797972679138184,2.1451826095581055,2.8894433975219727,2.780484676361084,1.1971043348312378,5.6937336921691895,1.3474822044372559,2.185385227203369,3.182547092437744,2.5341224670410156,2.6151344776153564,2.3271114826202393,2.828859329223633,2.510152816772461,,9.195858001708984,2.5203616619110107,6.5943922996521,3.1924092769622803,5.587879657745361,5.315484523773193
112,,2.115283966064453,1.3943870067596436,6.068337917327881,7.880642890930176,1.2092832326889038,4.9201273918151855,4.04250955581665,2.3710546493530273,1.3350027799606323,2.3549535274505615,1.5790454149246216,1.2664941549301147,3.1665256023406982,2.245974063873291,,,,3.5897138118743896,2.1213583946228027,2.8894433975219727,2.782367467880249,1.1954145431518555,5.679318428039551,1.3395090103149414,2.178774356842041,3.195169448852539,2.5404012203216553,2.6151344776153564,2.3280513286590576,2.824096918106079,2.499838352203369,,9.122161865234375,2.5005085468292236,6.507498264312744,3.2129154205322266,5.596358299255371,5.382423400878906
113,,2.1448426246643066,1.399372935295105,6.121206283569336,7.90567684173584,1.2281782627105713,4.936883449554443,4.075040817260742,2.395902395248413,1.3689512014389038,2.370239019393921,1.5974063873291016,1.2627499103546143,3.1637074947357178,2.297128677368164,,,,3.6462368965148926,2.1302924156188965,2.8876025676727295,2.782367467880249,1.194569706916809,5.68292236328125,1.3448244333267212,2.1674411296844482,3.1690237522125244,2.5610334873199463,2.6059906482696533,2.332749843597412,2.854576349258423,2.493274688720703,,9.235540390014648,2.5213541984558105,6.618264198303223,3.234353542327881,5.6095476150512695,5.383366584777832
114,,2.138376235961914,1.3927249908447266,6.159976482391357,7.864880561828613,1.236767053604126,4.965366840362549,4.064515590667725,2.4054596424102783,1.364363670349121,2.363551378250122,1.6056686639785767,1.280535340309143,3.169343948364258,2.2816860675811768,,,,3.6511950492858887,2.1600730419158936,2.8894433975219727,2.782367467880249,1.1759837865829468,5.681121349334717,1.358999252319336,2.1381642818450928,3.165417194366455,2.567312717437744,2.578558921813965,2.332749843597412,2.8383843898773193,2.471707820892334,,9.122161865234375,2.4856183528900146,6.493175983428955,3.220371961593628,5.585052013397217,5.381480693817139
115,,2.126368522644043,1.3785984516143799,6.055121898651123,7.834286212921143,1.2316138744354248,4.852269649505615,4.021459102630615,2.4083266258239746,1.361611008644104,2.331069231033325,1.5790454149246216,1.2683663368225098,3.1684038639068604,2.2758946418762207,,,,3.6511950492858887,2.142204523086548,2.8894433975219727,2.780484676361084,1.1616220474243164,5.648688793182373,1.3457105159759521,2.1154980659484863,3.1356656551361084,2.5323281288146973,2.55021333694458,2.339329242706299,2.8317172527313232,2.4726459980010986,,9.133500099182129,2.4856183528900146,6.489355564117432,3.2278289794921875,5.570920467376709,5.392794132232666
116,,2.126368522644043,1.3927249908447266,6.155570030212402,7.9696478843688965,1.2316138744354248,4.905885696411133,4.067386627197266,2.4264845848083496,1.355188250541687,2.3788371086120605,1.5854718685150146,1.280535340309143,3.1684038639068604,2.291337728500366,,,,3.6878857612609863,2.1600730419158936,2.8903632164001465,2.780484676361084,1.1523289680480957,5.627066612243652,1.351025938987732,2.096609592437744,3.116732358932495,2.574488639831543,2.5401556491851807,2.3374500274658203,2.8440988063812256,2.4923369884490967,,9.232706069946289,2.5203616619110107,6.579113483428955,3.255791664123535,5.6199116706848145,5.4399333000183105
117,,2.143918752670288,1.3927249908447266,6.148521900177002,8.017858505249023,1.2419202327728271,4.982959747314453,4.085565567016602,2.4436867237091064,1.3909718990325928,2.3797926902770996,1.6111772060394287,1.2833433151245117,3.1665256023406982,2.2845816612243652,,,,3.684910774230957,2.155109405517578,2.8912837505340576,2.780484676361084,1.1489496231079102,5.655895233154297,1.3448244333267212,2.130608558654785,3.1410748958587646,2.5933268070220947,2.562100410461426,2.3308706283569336,2.849813938140869,2.534532308578491,,9.259160995483398,2.519369125366211,6.626857757568359,3.255791664123535,5.657597064971924,5.477644920349121
118,,2.1448426246643066,1.4043587446212769,6.167905807495117,8.009515762329102,1.2410613298416138,4.964528560638428,4.100874423980713,2.4628005027770996,1.3918894529342651,2.3492214679718018,1.5937342643737793,1.2880237102508545,3.1684038639068604,2.297128677368164,,,,3.6978020668029785,2.135255813598633,2.8931241035461426,2.780484676361084,1.174294352531433,5.698237895965576,1.353683590888977,2.163663387298584,3.182547092437744,2.596017360687256,2.6005046367645264,2.3308706283569336,2.864100933074951,2.5373456478118896,,9.287505149841309,2.531280755996704,6.723300457000732,3.225032329559326,5.654771327972412,5.456904411315918
119,,2.136528968811035,1.4010348320007324,6.123849868774414,8.018786430358887,1.2350491285324097,4.914263725280762,4.0769548416137695,2.4522886276245117,1.3946419954299927,2.367372751235962,1.5918980836868286,1.295512080192566,3.171222448348999,2.2874765396118164,,,,3.644253730773926,2.1283071041107178,2.8912837505340576,2.782367467880249,1.1827423572540283,5.7721123695373535,1.3572274446487427,2.1995513439178467,3.212299108505249,2.5834593772888184,2.633422613143921,2.3252320289611816,2.8526713848114014,2.523280382156372,,9.305456161499023,2.5283029079437256,6.727120399475098,3.202662467956543,5.5596137046813965,5.392794132232666
120,,2.118978977203369,1.4051896333694458,6.0868425369262695,7.959450721740723,1.2341904640197754,4.9159393310546875,4.109486103057861,2.430307626724243,1.4019821882247925,2.37214994430542,1.5974063873291016,1.2814713716506958,3.169343948364258,2.297128677368164,,,,3.6621031761169434,2.118380308151245,2.8894433975219727,2.782367467880249,1.1861217021942139,5.743283271789551,1.3465962409973145,2.2080509662628174,3.215003728866577,2.588840961456299,2.6242778301239014,2.3308706283569336,2.8412418365478516,2.54015851020813,,9.27238941192627,2.519369125366211,6.750992298126221,3.174699544906616,5.583168029785156,5.455961227416992
121,,2.14207124710083,1.3985419273376465,6.115038871765137,7.950178146362305,1.2393436431884766,4.925992012023926,4.081737995147705,2.439864158630371,1.392807126045227,2.336801767349243,1.5790454149246216,1.2730467319488525,3.169343948364258,2.259486675262451,,,,3.6789608001708984,2.126321792602539,2.8894433975219727,2.782367467880249,1.187811255455017,5.721661567687988,1.3483681678771973,2.2174954414367676,3.228527545928955,2.5834593772888184,2.651709794998169,2.3355705738067627,2.849813938140869,2.517653703689575,,9.295064926147461,2.525324821472168,6.76531457901001,3.173767566680908,5.60389518737793,5.417306423187256
122,,2.133758068084717,1.3844152688980103,6.102702617645264,7.907530784606934,1.236767053604126,4.734147071838379,4.051120758056641,2.4245736598968506,1.3753738403320312,2.331069231033325,1.5817995071411133,1.2730467319488525,3.170283079147339,2.2623822689056396,,,,3.645245313644409,2.133270502090454,2.8912837505340576,2.782367467880249,1.184432029724121,5.745085716247559,1.370516061782837,2.2108848094940186,3.213200330734253,2.5610334873199463,2.6471381187438965,2.3308706283569336,2.828859329223633,2.498900890350342,,9.243099212646484,2.531280755996704,6.724255084991455,3.170971393585205,5.472936153411865,5.317370414733887
123,,2.08480167388916,1.3603166341781616,5.961721897125244,7.733227729797363,1.2264604568481445,4.616023540496826,3.980316400527954,2.38156795501709,1.3744564056396484,2.3234267234802246,1.5496678352355957,1.2814713716506958,3.171222448348999,2.2662429809570312,,,,3.569880962371826,2.134263277053833,2.8912837505340576,2.782367467880249,1.166690707206726,5.691932201385498,1.3554555177688599,2.1532747745513916,3.1564016342163086,2.5054168701171875,2.5959322452545166,2.326171398162842,2.8040950298309326,2.456705331802368,,9.132556915283203,2.469735860824585,6.635451793670654,3.105725049972534,5.430539131164551,5.213662624359131
124,,2.1023521423339844,1.3461899757385254,5.956435203552246,7.761041641235352,1.2376257181167603,4.5490031242370605,3.980316400527954,2.3720107078552246,1.3542708158493042,2.3339357376098633,1.5680288076400757,1.267430305480957,3.1721622943878174,2.2662429809570312,,,,3.5678980350494385,2.1163949966430664,2.8912837505340576,2.780484676361084,1.1650012731552124,5.720760822296143,1.3572274446487427,2.157996892929077,3.1717283725738525,2.507211208343506,2.5986759662628174,2.32147216796875,2.8040950298309326,2.475458860397339,,9.162789344787598,2.5163910388946533,6.588663101196289,3.1094534397125244,5.48047399520874,5.271173000335693
125,,2.0533955097198486,1.3395421504974365,5.900923728942871,7.628461837768555,1.223883867263794,4.562407493591309,3.909512758255005,2.331871747970581,1.3386728763580322,2.27661395072937,1.5257984399795532,1.2580697536468506,3.171222448348999,2.2237751483917236,,,,3.5262491703033447,2.044921875,2.8903632164001465,2.782367467880249,1.1607770919799805,5.720760822296143,1.3581132888793945,2.1428864002227783,3.1663193702697754,2.5099024772644043,2.585874319076538,2.32241153717041,2.7536137104034424,2.43701434135437,,9.021068572998047,2.4330074787139893,6.4702582359313965,3.101996421813965,5.399448871612549,5.202348709106445
126,,2.078335762023926,1.3569927215576172,6.064813613891602,7.888060569763184,1.2307549715042114,4.6520466804504395,4.008064270019531,2.3882575035095215,1.3606935739517212,2.319605588912964,1.553339958190918,1.2655580043792725,3.169343948364258,2.253695487976074,,,,3.6135129928588867,2.1074607372283936,2.8903632164001465,2.780484676361084,1.1658459901809692,5.725265979766846,1.362542748451233,2.129664421081543,3.1555001735687256,2.546680450439453,2.58404541015625,2.31583309173584,2.7907602787017822,2.4942123889923096,,9.14011287689209,2.505471706390381,6.708977222442627,3.1336874961853027,5.487069129943848,5.292857646942139
127,,2.099580764770508,1.3461899757385254,6.071862697601318,7.892695426940918,1.233331561088562,4.574973106384277,4.053990840911865,2.4131052494049072,1.3909718990325928,2.2995426654815674,1.5753732919692993,1.2599419355392456,3.171222448348999,2.2479043006896973,,,,3.6551618576049805,2.0846290588378906,2.8866825103759766,2.780484676361084,1.170069932937622,5.750490665435791,1.3678584098815918,2.145719528198242,3.1726303100585938,2.551166296005249,2.59684681892395,2.301734685897827,2.839336395263672,2.501713752746582,,9.18735408782959,2.496537923812866,6.769134998321533,3.122502088546753,5.5586724281311035,5.374881267547607
128,,2.0875725746154785,1.3461899757385254,6.085079669952393,7.9019670486450195,1.2170131206512451,4.585026264190674,4.04250955581665,2.427440643310547,1.3854666948318481,2.2890336513519287,1.5570123195648193,1.2664941549301147,3.171222448348999,2.2421135902404785,,,,3.644253730773926,2.1144096851348877,2.879321336746216,2.782367467880249,1.1582428216934204,5.742382526397705,1.362542748451233,2.1258866786956787,3.1536967754364014,2.5421953201293945,2.5776445865631104,2.300795316696167,2.8317172527313232,2.5045266151428223,,9.22987174987793,2.5273101329803467,6.72234582901001,3.1616499423980713,5.5586724281311035,5.378652095794678
129,,2.1291394233703613,1.3594857454299927,6.201389312744141,7.973355770111084,1.2281782627105713,4.591728687286377,4.101831912994385,2.4427313804626465,1.4084049463272095,2.342533588409424,1.5937342643737793,1.2655580043792725,3.1684038639068604,2.3125712871551514,,,,3.705734968185425,2.141211986541748,2.8784005641937256,2.783308744430542,1.1616220474243164,5.726165771484375,1.3519119024276733,2.1192758083343506,3.1555001735687256,2.5655181407928467,2.576730489730835,2.306434154510498,2.8926753997802734,2.5476598739624023,,9.448122024536133,2.5620534420013428,6.907592296600342,3.2278289794921875,5.7065887451171875,5.4672746658325195
130,,2.1346819400787354,1.3619786500930786,6.194339752197266,7.938125133514404,1.198117971420288,4.678854465484619,4.142974376678467,2.420750379562378,1.4038172960281372,2.342533588409424,1.583635687828064,1.2571338415145874,3.1684038639068604,2.316432476043701,,,,3.7384588718414307,2.1531240940093994,2.8765602111816406,2.781425952911377,1.1548633575439453,5.7531938552856445,1.3607710599899292,2.10227632522583,3.1509923934936523,2.5798709392547607,2.5611860752105713,2.300795316696167,2.8850557804107666,2.544846773147583,,9.382930755615234,2.574957847595215,6.868441104888916,3.2278289794921875,5.699994087219238,5.590781211853027
131,,2.153156042098999,1.3761054277420044,6.233109474182129,8.005805969238281,1.2152951955795288,4.708176136016846,4.18602991104126,2.465667486190796,1.421250343322754,2.3511321544647217,1.5974063873291016,1.2608779668807983,3.1674652099609375,2.3231887817382812,,,,3.7632498741149902,2.155109405517578,2.875640392303467,2.783308744430542,1.147260069847107,5.734274387359619,1.3554555177688599,2.0767769813537598,3.130256175994873,2.587047576904297,2.5456411838531494,2.305494546890259,2.9183921813964844,2.5504724979400635,,9.389544486999512,2.574957847595215,6.842659950256348,3.2362172603607178,5.764060020446777,5.635092258453369
132,,2.1540796756744385,1.371950387954712,6.2198920249938965,7.975210189819336,1.223883867263794,4.757603168487549,4.188900470733643,2.463756561279297,1.4111573696136475,2.3444442749023438,1.5891437530517578,1.2608779668807983,3.169343948364258,2.316432476043701,,,,3.758291482925415,2.163050889968872,2.875640392303467,2.782367467880249,1.1447256803512573,5.756796836853027,1.3554555177688599,2.0550553798675537,3.1176340579986572,2.597811698913574,2.5300965309143066,2.313953399658203,2.890770435333252,2.5551609992980957,,9.43867301940918,2.579921007156372,6.856029033660889,3.239945888519287,5.747101783752441,5.582295894622803
133,,2.1522321701049805,1.362809658050537,6.25601863861084,7.926998615264893,1.2135776281356812,4.711526870727539,4.200381755828857,2.511540651321411,1.424003005027771,2.3511321544647217,1.5891437530517578,1.261813998222351,3.170283079147339,2.3009891510009766,,,,3.7642414569854736,2.1680142879486084,2.8820815086364746,2.783308744430542,1.1252950429916382,5.698237895965576,1.3359652757644653,2.0305004119873047,3.0716545581817627,2.5861504077911377,2.494436025619507,2.3083138465881348,2.8860080242156982,2.5654754638671875,,9.447178840637207,2.574957847595215,6.854119300842285,3.223168134689331,5.7894978523254395,5.625664234161377
134,,2.174401044845581,1.3844152688980103,6.270117282867432,8.071633338928223,1.2256015539169312,4.78524923324585,4.2769269943237305,2.4981613159179688,1.426755428314209,2.3817033767700195,1.6120952367782593,1.2590060234069824,3.1731014251708984,2.3395965099334717,,,,3.8019235134124756,2.207721471786499,2.8811612129211426,2.783308744430542,1.1109329462051392,5.636075496673584,1.3377370834350586,2.0087788105010986,3.0527210235595703,2.6049880981445312,2.4743194580078125,2.305494546890259,2.9450619220733643,2.584228992462158,,9.505757331848145,2.593818187713623,6.9496073722839355,3.2501988410949707,5.795151233673096,5.630378723144531
135,,2.162393093109131,1.3844152688980103,6.2947893142700195,8.049382209777832,1.2247428894042969,4.852269649505615,4.292235851287842,2.5316100120544434,1.4396010637283325,2.4036765098571777,1.6001605987548828,1.2552615404129028,3.1684038639068604,2.354074239730835,,,,3.800931692123413,2.202758312225342,2.875640392303467,2.783308744430542,1.116001844406128,5.615354537963867,1.3297637701034546,2.031444787979126,3.065343141555786,2.619340658187866,2.4916932582855225,2.2989156246185303,2.942204475402832,2.579540491104126,,9.448122024536133,2.614664316177368,6.894223690032959,3.2138473987579346,5.7942094802856445,5.669975280761719
136,,2.1827142238616943,1.3711193799972534,6.341488361358643,8.024348258972168,1.2041300535202026,4.9410719871521,4.279797077178955,2.500072479248047,1.4506113529205322,2.389346122741699,1.627701997756958,1.2590060234069824,3.1674652099609375,2.348283290863037,,,,3.7493667602539062,2.2265825271606445,2.875640392303467,2.783308744430542,1.1193811893463135,5.636977195739746,1.3253343105316162,2.049388885498047,3.0761618614196777,2.6211345195770264,2.50357985496521,2.2913966178894043,2.952681303024292,2.5607869625091553,,9.501032829284668,2.5987815856933594,6.927645206451416,3.253927230834961,5.7942094802856445,5.6445207595825195
137,,2.1827142238616943,1.3677955865859985,6.361754417419434,8.024348258972168,1.2006945610046387,4.931018829345703,4.19942569732666,2.518230438232422,1.4506113529205322,2.3826587200164795,1.6176033020019531,1.2505812644958496,3.157132387161255,2.3338053226470947,,,,3.6740026473999023,2.215663194656372,2.8701186180114746,2.783308744430542,1.1202259063720703,5.6387786865234375,1.3155890703201294,2.053166627883911,3.07706356048584,2.6301047801971436,2.5063226222991943,2.2989156246185303,2.9212498664855957,2.5607869625091553,,9.514260292053223,2.5838916301727295,6.8722615242004395,3.253927230834961,5.779134273529053,5.626607418060303
138,,2.1328344345092773,1.342866063117981,6.243682861328125,7.843557834625244,1.1852351427078247,4.771008491516113,4.114269256591797,2.444643020629883,1.414827585220337,2.3549535274505615,1.5854718685150146,1.2524535655975342,3.158071994781494,2.3067808151245117,,,,3.606571674346924,2.1541168689727783,2.8728795051574707,2.783308744430542,1.0982606410980225,5.559497833251953,1.2978707551956177,2.024833917617798,3.031984806060791,2.573591709136963,2.473404884338379,2.297975540161133,2.8860080242156982,2.5326571464538574,,9.413164138793945,2.5441854000091553,6.840750217437744,3.2427423000335693,5.704704761505127,5.471988201141357
139,,2.1180551052093506,1.3511759042739868,6.2683539390563965,7.856537818908691,1.1766464710235596,4.881591320037842,4.157325744628906,2.4694905281066895,1.40473473072052,2.3377573490142822,1.5698649883270264,1.2505812644958496,3.152435779571533,2.2758946418762207,,,,3.6035966873168945,2.1511387825012207,2.8737995624542236,2.783308744430542,1.0898125171661377,5.511750221252441,1.292555332183838,2.0144453048706055,3.0247724056243896,2.5834593772888184,2.462432622909546,2.2866969108581543,2.883150815963745,2.5092151165008545,,9.259160995483398,2.531280755996704,6.738578796386719,3.2147793769836426,5.760291576385498,5.558725833892822
140,,2.1069705486297607,1.3536688089370728,6.337963581085205,7.8500471115112305,1.20842444896698,5.02233362197876,4.104701042175293,2.3987698554992676,1.3717039823532104,2.3282034397125244,1.5671106576919556,1.2496452331542969,3.1486785411834717,2.253695487976074,,,,3.5351741313934326,2.1670217514038086,2.865518093109131,2.783308744430542,1.0822091102600098,5.481119632720947,1.28812575340271,2.003112316131592,3.0229690074920654,2.6148555278778076,2.4505457878112793,2.285757064819336,2.8736259937286377,2.5054640769958496,,9.209085464477539,2.5213541984558105,6.579113483428955,3.208254814147949,5.674556255340576,5.499330520629883
141,,2.1041994094848633,1.3395421504974365,6.376733779907227,7.799982070922852,1.204988956451416,4.929342746734619,3.9707489013671875,2.3911242485046387,1.3790439367294312,2.314828634262085,1.5551761388778687,1.241220474243164,3.1439812183380127,2.264312267303467,,,,3.4003117084503174,2.1580874919891357,2.866438388824463,2.783308744430542,1.0771403312683105,5.468506813049316,1.2845821380615234,1.9813909530639648,3.0058393478393555,2.5852532386779785,2.432258129119873,2.2876365184783936,2.872673511505127,2.5092151165008545,,9.164679527282715,2.4995155334472656,6.541873455047607,3.220371961593628,5.662308692932129,5.453132629394531
142,,2.090343952178955,1.3503447771072388,6.42476749420166,7.754551887512207,1.2032711505889893,4.98966121673584,3.9650075435638428,2.3528971672058105,1.364363670349121,2.311962604522705,1.5753732919692993,1.251556634902954,3.150836944580078,2.2507998943328857,,,,3.450885057449341,2.0945558547973633,2.8744161128997803,2.787360906600952,1.0855884552001953,5.4991374015808105,1.296099066734314,1.9606136083602905,2.984201669692993,2.603193998336792,2.4020836353302,2.264785051345825,2.8736259937286377,2.4942123889923096,,9.220422744750977,2.4955451488494873,6.493175983428955,3.2427423000335693,5.60389518737793,5.462561130523682
143,,2.058014154434204,1.312950611114502,6.301870346069336,7.5487284660339355,1.1912471055984497,4.89750862121582,3.9516122341156006,2.3414289951324463,1.3395904302597046,2.2938106060028076,1.5505857467651367,1.2458937168121338,3.137605905532837,2.2507998943328857,,,,3.411219835281372,2.103490114212036,2.850269317626953,2.7807488441467285,1.0678473711013794,5.4441819190979,1.2898975610733032,1.9351142644882202,2.9751858711242676,2.5260488986968994,2.398425817489624,2.2524964809417725,2.8517189025878906,2.4548304080963135,,9.056025505065918,2.4816479682922363,6.3976874351501465,3.207322359085083,5.516275882720947,5.380537033081055
144,,2.0764880180358887,1.3212604522705078,6.332369804382324,7.627535343170166,1.20842444896698,4.844730377197266,3.960223913192749,2.3376059532165527,1.3450956344604492,2.3272480964660645,1.5616024732589722,1.2477816343307495,3.1413862705230713,2.2662429809570312,,,,3.389403820037842,2.096541404724121,2.8493399620056152,2.787360906600952,1.0855884552001953,5.523461818695068,1.3120454549789429,1.9615579843521118,3.0085439682006836,2.5610334873199463,2.4203710556030273,2.281799077987671,2.889817953109741,2.4829602241516113,,9.159955024719238,2.511427640914917,6.548558235168457,3.1961374282836914,5.6679606437683105,5.483302593231201
145,,2.1088180541992188,1.3295704126358032,6.42387056350708,7.7035603523254395,1.2118598222732544,4.910912990570068,4.009021282196045,2.3911242485046387,1.3689512014389038,2.338712215423584,1.5863897800445557,1.2421183586120605,3.146111488342285,2.2797553539276123,,,,3.455843210220337,2.1074607372283936,2.870701313018799,2.787360906600952,1.0982606410980225,5.5856242179870605,1.2978707551956177,1.987056851387024,3.0382957458496094,2.576282501220703,2.4542031288146973,2.2808542251586914,2.8888657093048096,2.527968645095825,,9.344193458557129,2.5412073135375977,6.604895114898682,3.2623162269592285,5.7565226554870605,5.601151466369629
146,,2.0820305347442627,1.345358967781067,6.461547374725342,7.748989582061768,1.2195897102355957,4.972906589508057,3.9860572814941406,2.351940870285034,1.3588584661483765,2.3339357376098633,1.5955703258514404,1.2458937168121338,3.1451668739318848,2.276859760284424,,,,3.3983285427093506,2.0945558547973633,2.8688433170318604,2.787360906600952,1.0974160432815552,5.6108503341674805,1.2987568378448486,1.9691133499145508,3.0382957458496094,2.596017360687256,2.444145441055298,2.2780182361602783,2.872673511505127,2.49702525138855,,9.273331642150879,2.5233395099639893,6.569565773010254,3.2604520320892334,5.682093620300293,5.500272274017334
147,,2.07279372215271,1.312950611114502,6.5575337409973145,7.6460771560668945,1.2178717851638794,4.842216968536377,3.8664565086364746,2.3433399200439453,1.356105923652649,2.2995426654815674,1.5698649883270264,1.2392866611480713,3.1527271270751953,2.2421135902404785,,,,3.356679916381836,2.0707316398620605,2.86698579788208,2.7854716777801514,1.0906574726104736,5.552291393280029,1.2819242477416992,1.9558916091918945,3.0229690074920654,2.58256196975708,2.4240283966064453,2.261948823928833,2.809809684753418,2.475458860397339,,9.080591201782227,2.4816479682922363,6.3499436378479,3.233421564102173,5.546423435211182,5.425792217254639
148,,2.0607852935791016,1.3229224681854248,6.5736799240112305,7.605283737182617,1.214436411857605,4.838865756988525,3.80330753326416,2.3720107078552246,1.3423429727554321,2.315784215927124,1.5790454149246216,1.2506132125854492,3.148947238922119,2.270103693008423,,,,3.2723910808563232,2.1024973392486572,2.8632709980010986,2.7864158153533936,1.0754508972167969,5.5504889488220215,1.28812575340271,1.9322811365127563,2.998626708984375,2.566415548324585,2.4029977321624756,2.262894630432129,2.785045862197876,2.471707820892334,,9.09476375579834,2.4856183528900146,6.34230375289917,3.2613842487335205,5.527581214904785,5.376766204833984
149,,2.0912675857543945,1.3378801345825195,6.649930953979492,7.707268238067627,1.227319359779358,4.942748069763184,3.7746028900146484,2.3653206825256348,1.3542708158493042,2.3453996181488037,1.583635687828064,1.2449496984481812,3.144221305847168,2.272034168243408,,,,3.1920688152313232,2.1074607372283936,2.860485315322876,2.7864158153533936,1.0796747207641602,5.5558953285217285,1.2854678630828857,1.9115036725997925,2.9932174682617188,2.589738130569458,2.3892815113067627,2.268566131591797,2.871721029281616,2.5026516914367676,,9.25821590423584,2.4885964393615723,6.43206262588501,3.3443400859832764,5.63969612121582,5.479530334472656
150,,2.1005043983459473,1.3337253332138062,6.712724685668945,7.6655473709106445,1.223883867263794,4.915101051330566,3.771732807159424,2.3089354038238525,1.3304153680801392,2.3549535274505615,1.5983245372772217,1.2411744594573975,3.1451668739318848,2.302919626235962,,,,3.27139949798584,2.1084535121917725,2.8595564365386963,2.7854716777801514,1.0686922073364258,5.532470226287842,1.248259425163269,1.9171700477600098,2.995922088623047,2.5933268070220947,2.3865387439727783,2.2638394832611084,2.821239709854126,2.5026516914367676,,9.33569049835205,2.546170711517334,6.358536720275879,3.426363945007324,5.666077136993408,5.545526504516602
151,,2.1078941822052,1.3212604522705078,6.667871952056885,7.720248699188232,1.2135776281356812,4.803679943084717,3.7793872356414795,2.3366501331329346,1.355188250541687,2.368328332901001,1.6075050830841064,1.2430620193481445,3.1404411792755127,2.298093557357788,,,,3.274374485015869,2.1015048027038574,2.8614139556884766,2.7854716777801514,1.0754508972167969,5.573012351989746,1.2624338865280151,1.948335886001587,3.0211660861968994,2.587047576904297,2.4194564819335938,2.276127576828003,2.846956729888916,2.5270307064056396,,9.381985664367676,2.5412073135375977,6.520866870880127,3.351796865463257,5.683035850524902,5.539870262145996
152,,2.0912675857543945,1.3204295635223389,6.552151203155518,7.6868720054626465,1.207565426826477,4.765981674194336,3.821486473083496,2.322314977645874,1.3395904302597046,2.36928391456604,1.6120952367782593,1.244005799293518,3.1432762145996094,2.297128677368164,,,,3.281315803527832,2.0945558547973633,2.8632709980010986,2.7854716777801514,1.0771403312683105,5.545984745025635,1.2766088247299194,1.953057885169983,3.020264148712158,2.5574452877044678,2.4185423851013184,2.279909372329712,2.853623867034912,2.5195295810699463,,9.401827812194824,2.5372366905212402,6.472167491912842,3.388148546218872,5.705646991729736,5.581353187561035
153,,2.092191457748413,1.3370490074157715,6.631989002227783,7.809253692626953,1.223883867263794,4.854783535003662,3.8846359252929688,2.366276741027832,1.3790439367294312,2.3931679725646973,1.621275782585144,1.2449496984481812,3.148947238922119,2.3318755626678467,,,,3.339822292327881,2.103490114212036,2.8688433170318604,2.787360906600952,1.0855884552001953,5.612651824951172,1.2907835245132446,1.9776133298873901,3.0536227226257324,2.597811698913574,2.4505457878112793,2.279909372329712,2.9041049480438232,2.5373456478118896,,9.468908309936523,2.580913782119751,6.568611145019531,3.388148546218872,5.761233806610107,5.669975280761719
154,,2.1106653213500977,1.3304013013839722,6.630194664001465,7.805545330047607,1.2324726581573486,4.835515022277832,3.8922903537750244,2.36723256111145,1.3588584661483765,2.3855247497558594,1.6414728164672852,1.2402305603027344,3.1527271270751953,2.3338053226470947,,,,3.312056303024292,2.1312851905822754,2.8697726726531982,2.7864158153533936,1.0982606410980225,5.641480922698975,1.2952131032943726,2.024833917617798,3.0896854400634766,2.5987091064453125,2.488035202026367,2.2695114612579346,2.926964521408081,2.566413164138794,,9.54260540008545,2.580913782119751,6.558106899261475,3.4198391437530518,5.84602689743042,5.752942085266113
155,,2.122673749923706,1.3362181186676025,6.629298686981201,7.909383773803711,1.261674165725708,4.812057971954346,3.919081449508667,2.3442959785461426,1.35243558883667,2.392212390899658,1.620357632637024,1.244005799293518,3.1432762145996094,2.3241536617279053,,,,3.3656046390533447,2.134263277053833,2.8641998767852783,2.7854716777801514,1.1067088842391968,5.697336673736572,1.3005285263061523,2.037111282348633,3.116732358932495,2.6238253116607666,2.510894536972046,2.278963327407837,2.9212498664855957,2.5692265033721924,,9.537879943847656,2.5709872245788574,6.649775505065918,3.4300925731658936,5.868638038635254,5.804795742034912
156,,2.1254448890686035,1.3220914602279663,6.641857147216797,7.8407769203186035,1.2470734119415283,4.745874881744385,3.928649663925171,2.3634097576141357,1.3487656116485596,2.397944450378418,1.6368824243545532,1.2411744594573975,3.150836944580078,2.3463528156280518,,,,3.361638307571411,2.1541168689727783,2.865128517150879,2.7864158153533936,1.0948814153671265,5.726165771484375,1.2943271398544312,2.0050010681152344,3.0887842178344727,2.5996055603027344,2.4834635257720947,2.2808542251586914,2.927917242050171,2.5832910537719727,,9.57094955444336,2.5987815856933594,6.681286811828613,3.421703338623047,5.8394317626953125,5.7274861335754395
157,,2.122673749923706,1.3345563411712646,6.63737154006958,7.893622875213623,1.2384848594665527,4.766819000244141,3.879852294921875,2.3184924125671387,1.356105923652649,2.4132301807403564,1.6240298748016357,1.2364552021026611,3.150836944580078,2.3260843753814697,,,,3.2892487049102783,2.1471681594848633,2.867915391921997,2.787360906600952,1.0931918621063232,5.720760822296143,1.308501958847046,1.9889460802078247,3.066244602203369,2.6013998985290527,2.47157621383667,2.2751827239990234,2.9145824909210205,2.5692265033721924,,9.534101486206055,2.574957847595215,6.613490104675293,3.402129888534546,5.832837104797363,5.7274861335754395
158,,2.1429948806762695,1.3287394046783447,6.616738796234131,7.886205196380615,1.2376257181167603,4.691421031951904,3.953526020050049,2.3376059532165527,1.349683165550232,2.3912572860717773,1.6176033020019531,1.2326796054840088,3.1480019092559814,2.3260843753814697,,,,3.3368473052978516,2.165036201477051,2.8660571575164795,2.787360906600952,1.09403657913208,5.657697677612305,1.3023004531860352,1.9965014457702637,3.0680477619171143,2.587047576904297,2.4706616401672363,2.272346258163452,2.883150815963745,2.5551609992980957,,9.504812240600586,2.5858771800994873,6.5380539894104,3.4300925731658936,5.803630352020264,5.639806747436523
159,,2.153156042098999,1.3312323093414307,6.592518329620361,7.945542812347412,1.2341904640197754,4.677179336547852,3.878894805908203,2.3442959785461426,1.3661985397338867,2.399855136871338,1.621275782585144,1.2402305603027344,3.1432762145996094,2.3463528156280518,,,,3.312056303024292,2.186875343322754,2.865128517150879,2.7883050441741943,1.084743618965149,5.698237895965576,1.3023004531860352,1.9691133499145508,3.0545244216918945,2.5987091064453125,2.45694637298584,2.281799077987671,2.912677764892578,2.5495352745056152,,9.467019081115723,2.5630459785461426,6.55524206161499,3.403061866760254,5.797976970672607,5.665261745452881
160,,2.158698081970215,1.3387112617492676,6.621224880218506,7.968720436096191,1.2599562406539917,4.724930763244629,3.9430010318756104,2.3892130851745605,1.3726212978363037,2.4132301807403564,1.635964274406433,1.2411744594573975,3.1498920917510986,2.3685519695281982,,,,3.4082448482513428,2.17893385887146,2.867915391921997,2.7864158153533936,1.0830539464950562,5.68292236328125,1.3076157569885254,1.9596692323684692,3.0410003662109375,2.618443250656128,2.455117702484131,2.289360761642456,2.924107074737549,2.5936057567596436,,9.62763786315918,2.6126787662506104,6.674601078033447,3.434752941131592,5.8837127685546875,5.683175086975098
161,,2.1577744483947754,1.3553308248519897,6.646342754364014,8.003952980041504,1.2702627182006836,4.716553688049316,3.9611804485321045,2.393991470336914,1.36344575881958,2.427560567855835,1.6433087587356567,1.235511302947998,3.150836944580078,2.385925054550171,,,,3.3913872241973877,2.199780225753784,2.8753445148468018,2.7883050441741943,1.0762956142425537,5.671211242675781,1.2943271398544312,1.9710021018981934,3.045508623123169,2.6345903873443604,2.45694637298584,2.303539991378784,2.9288697242736816,2.605795383453369,,9.707945823669434,2.615656852722168,6.753856182098389,3.470172166824341,5.891250133514404,5.613408088684082
162,,2.1466896533966064,1.3553308248519897,6.665180683135986,8.027129173278809,1.2702627182006836,4.701474189758301,3.9152536392211914,2.364365339279175,1.3395904302597046,2.430426597595215,1.653407335281372,1.2411744594573975,3.1546175479888916,2.3839950561523438,,,,3.3338723182678223,2.185882568359375,2.884631872177124,2.7864158153533936,1.0737611055374146,5.659499168395996,1.2943271398544312,1.975724220275879,3.0382957458496094,2.632796049118042,2.4404873847961426,2.2884156703948975,2.90124773979187,2.5786030292510986,,9.693775177001953,2.636502504348755,6.687970161437988,3.4822897911071777,5.845085144042969,5.547412872314453
163,,2.1753246784210205,1.3636406660079956,6.658004283905029,8.047527313232422,1.2762748003005981,4.775195598602295,3.942044496536255,2.3452510833740234,1.3487656116485596,2.452399730682373,1.669932246208191,1.235511302947998,3.155561685562134,2.386890411376953,,,,3.3021399974823,2.1878678798675537,2.8809170722961426,2.7864158153533936,1.0653128623962402,5.6288676261901855,1.2952131032943726,1.963446855545044,3.0193631649017334,2.6588101387023926,2.443230628967285,2.284634590148926,2.908867597579956,2.6020450592041016,,9.790146827697754,2.6394805908203125,6.736668586730957,3.5307583808898926,5.914803981781006,5.665261745452881
164,,2.1947221755981445,1.362809658050537,6.635577201843262,8.03269100189209,1.2694039344787598,4.830488204956055,3.957353353500366,2.356719732284546,1.3689512014389038,2.4590871334075928,1.6791127920150757,1.2345672845840454,3.1546175479888916,2.373378276824951,,,,3.3031318187713623,2.2057361602783203,2.879988431930542,2.7864158153533936,1.0678473711013794,5.609047889709473,1.3023004531860352,1.9738353490829468,3.0265753269195557,2.6507368087768555,2.4505457878112793,2.2808542251586914,2.9260122776031494,2.6198604106903076,,9.803374290466309,2.637495517730713,6.758631229400635,3.55499267578125,5.953431606292725,5.696374416351318
165,,2.179943323135376,1.3486828804016113,6.597900867462158,7.945542812347412,1.2625328302383423,4.755090713500977,3.942044496536255,2.350985288619995,1.355188250541687,2.4619531631469727,1.6690140962600708,1.2421183586120605,3.1470565795898438,2.3965423107147217,,,,3.2446253299713135,2.2047433853149414,2.877202033996582,2.7883050441741943,1.0661576986312866,5.600039005279541,1.3040722608566284,1.9908349514007568,3.031083106994629,2.622929096221924,2.4587748050689697,2.2770729064941406,2.908867597579956,2.616109609603882,,9.800539016723633,2.629554033279419,6.754812240600586,3.521437406539917,5.899729251861572,5.615293502807617
166,,2.1845619678497314,1.3744434118270874,6.695681571960449,8.025274276733398,1.28658127784729,4.806192874908447,3.9525699615478516,2.385390043258667,1.3707863092422485,2.4619531631469727,1.677276611328125,1.2496693134307861,3.1413862705230713,2.393646717071533,,,,3.2892487049102783,2.1908459663391113,2.87255859375,2.7883050441741943,1.0771403312683105,5.6649041175842285,1.306730031967163,2.0135011672973633,3.061736583709717,2.648942708969116,2.477062940597534,2.261948823928833,2.9326796531677246,2.626424789428711,,9.852502822875977,2.650399923324585,6.725210666656494,3.558720827102661,5.909151077270508,5.700145244598389
167,,2.1642403602600098,1.362809658050537,6.631092548370361,8.004878997802734,1.2779924869537354,4.782736778259277,4.030070781707764,2.4054596424102783,1.3817967176437378,2.4667303562164307,1.6809488534927368,1.2317359447479248,3.139495849609375,2.4148807525634766,,,,3.3576714992523193,2.1819117069244385,2.87255859375,2.7864158153533936,1.0788300037384033,5.609949111938477,1.2898975610733032,1.987056851387024,3.047311782836914,2.6372811794281006,2.4615180492401123,2.257223129272461,2.9393470287323,2.6339259147644043,,9.915804862976074,2.670253276824951,6.857938289642334,3.5503318309783936,5.976043701171875,5.754827499389648
168,,2.181790590286255,1.36696457862854,6.672357082366943,8.100374221801758,1.2874399423599243,4.793627738952637,4.075040817260742,2.38156795501709,1.368033766746521,2.451444387435913,1.6993098258972168,1.2336236238479614,3.1385512351989746,2.3791685104370117,,,,3.399320125579834,2.142204523086548,2.8753445148468018,2.7883050441741943,1.0695370435714722,5.627967834472656,1.2969849109649658,1.9766688346862793,3.0265753269195557,2.655221939086914,2.444145441055298,2.260058641433716,2.964110851287842,2.6536166667938232,,10.029184341430664,2.643451452255249,6.992576599121094,3.537282943725586,6.003366470336914,5.769912242889404
169,,2.1614692211151123,1.366133689880371,6.686710357666016,8.18288803100586,1.3080527782440186,4.833838939666748,4.136276721954346,2.4169280529022217,1.3762915134429932,2.488703489303589,1.6855391263961792,1.2373991012573242,3.139495849609375,2.437079906463623,,,,3.425102710723877,2.1660289764404297,2.8753445148468018,2.7864158153533936,1.067002534866333,5.5991387367248535,1.299642562866211,2.004056692123413,3.0518195629119873,2.6444575786590576,2.4670047760009766,2.265730142593384,2.9631588459014893,2.6583051681518555,,9.990446090698242,2.7149226665496826,7.01835823059082,3.553128480911255,6.052357196807861,5.7963104248046875
170,,2.1827142238616943,1.3810911178588867,6.771034240722656,8.271892547607422,1.317500352859497,4.913425445556641,4.1755051612854,2.393035888671875,1.364363670349121,2.4973018169403076,1.7112445831298828,1.2392866611480713,3.144221305847168,2.4380452632904053,,,,3.387420415878296,2.1680142879486084,2.877202033996582,2.7864158153533936,1.0712265968322754,5.625265121459961,1.303186297416687,2.024833917617798,3.065343141555786,2.700073719024658,2.4834635257720947,2.2780182361602783,2.9803035259246826,2.663931369781494,,10.094375610351562,2.7179007530212402,7.086154937744141,3.558720827102661,6.039167404174805,5.751056671142578
171,,2.1790196895599365,1.3777673244476318,6.7602691650390625,8.295998573303223,1.3157825469970703,4.90672492980957,4.1984686851501465,2.4083266258239746,1.3799614906311035,2.513542652130127,1.7167527675628662,1.2411744594573975,3.146111488342285,2.4563839435577393,,,,3.411219835281372,2.1729776859283447,2.879059076309204,2.7864158153533936,1.0729163885116577,5.661300182342529,1.3049583435058594,2.0210561752319336,3.0698509216308594,2.6893091201782227,2.487121105194092,2.2855799198150635,3.005068063735962,2.6864354610443115,,10.118940353393555,2.713930130004883,7.138672351837158,3.555924654006958,6.063663482666016,5.785940170288086
172,,2.1984171867370605,1.3777673244476318,6.754886627197266,8.256132125854492,1.2968875169754028,4.873213291168213,4.2262163162231445,2.3997254371643066,1.3671162128448486,2.5288286209106445,1.7167527675628662,1.2421183586120605,3.148947238922119,2.4727914333343506,,,,3.3675878047943115,2.1968021392822266,2.879988431930542,2.787360906600952,1.0703818798065186,5.626165390014648,1.3093875646591187,1.9983903169631958,3.048213481903076,2.684823751449585,2.4615180492401123,2.281799077987671,3.000305414199829,2.683622360229492,,10.155787467956543,2.747680425643921,7.15299654006958,3.5689737796783447,6.054242134094238,5.770854473114014
173,,2.1901040077209473,1.3852460384368896,6.7853875160217285,8.294144630432129,1.3106294870376587,4.8514323234558105,4.19081449508667,2.3873016834259033,1.3606935739517212,2.5259625911712646,1.7112445831298828,1.2421183586120605,3.1451668739318848,2.4776175022125244,,,,3.3725461959838867,2.1749629974365234,2.8809170722961426,2.787360906600952,1.0762956142425537,5.6649041175842285,1.3182469606399536,2.0323896408081055,3.079768180847168,2.6946916580200195,2.496264934539795,2.281799077987671,3.0174496173858643,2.690186023712158,,10.206808090209961,2.746687889099121,7.216017246246338,3.5866832733154297,6.090043544769287,5.822709560394287
174,,2.185485601425171,1.3761054277420044,6.754886627197266,8.347917556762695,1.317500352859497,4.873213291168213,4.13914680480957,2.3605425357818604,1.3487656116485596,2.5240511894226074,1.7057362794876099,1.2421183586120605,3.144221305847168,2.4563839435577393,,,,3.4022951126098633,2.1759557723999023,2.877202033996582,2.7883050441741943,1.0906574726104736,5.6892290115356445,1.3244482278823853,2.0446670055389404,3.1068153381347656,2.698279619216919,2.4990079402923584,2.2884156703948975,2.993637800216675,2.674245834350586,,10.146339416503906,2.753636360168457,7.205514907836914,3.541011333465576,6.059895038604736,5.767083644866943
175,,2.1771724224090576,1.3918938636779785,6.780004978179932,8.316396713256836,1.3106294870376587,4.9360456466674805,4.1314921379089355,2.3605425357818604,1.349683165550232,2.502078056335449,1.6938015222549438,1.2402305603027344,3.150836944580078,2.442870616912842,,,,3.4022951126098633,2.163050889968872,2.879059076309204,2.7883050441741943,1.0923470258712769,5.679318428039551,1.3200186491012573,2.0267229080200195,3.091488838195801,2.705456256866455,2.5008363723754883,2.2855799198150635,2.9812562465667725,2.652679204940796,,10.05091381072998,2.7238566875457764,7.089019298553467,3.5139801502227783,5.987349033355713,5.747285842895508
176,,2.1697826385498047,1.3977108001708984,6.791666507720947,8.312687873840332,1.3140649795532227,4.9662041664123535,4.151585102081299,2.358630895614624,1.35243558883667,2.4982569217681885,1.7011460065841675,1.2421183586120605,3.148947238922119,2.4476969242095947,,,,3.460801362991333,2.1610655784606934,2.879988431930542,2.7864158153533936,1.0906574726104736,5.679318428039551,1.322676658630371,2.040889024734497,3.1032090187072754,2.707249641418457,2.5008363723754883,2.289360761642456,3.005068063735962,2.6733078956604004,,10.104766845703125,2.711944818496704,7.132943630218506,3.534486770629883,6.047646999359131,5.76048469543457
177,,2.181790590286255,1.4026967287063599,6.842798709869385,8.389639854431152,1.3209359645843506,4.993012428283691,4.153498649597168,2.395902395248413,1.36344575881958,2.536471128463745,1.720425009727478,1.2458937168121338,3.1546175479888916,2.4727914333343506,,,,3.4528684616088867,2.163050889968872,2.881845712661743,2.787360906600952,1.0898125171661377,5.697336673736572,1.3164750337600708,2.0418334007263184,3.1032090187072754,2.7269845008850098,2.5154669284820557,2.292196750640869,3.0288801193237305,2.6948745250701904,,10.169960021972656,2.754629135131836,7.142491817474365,3.5643134117126465,6.075911045074463,5.8038530349731445
178,,2.1651642322540283,1.399372935295105,6.761166572570801,8.316396713256836,1.308911681175232,4.95950174331665,4.079824447631836,2.3634097576141357,1.3423429727554321,2.5202300548553467,1.7112445831298828,1.2411744594573975,3.153672456741333,2.4361143112182617,,,,3.387420415878296,2.1213583946228027,2.881845712661743,2.7864158153533936,1.0830539464950562,5.657697677612305,1.3164750337600708,2.012556552886963,3.083374500274658,2.7036616802215576,2.4898643493652344,2.2903060913085938,3.008877754211426,2.66768217086792,,10.033905982971191,2.711944818496704,7.058463096618652,3.507456064224243,5.952489852905273,5.700145244598389
179,,2.1309866905212402,1.3802602291107178,6.624813079833984,8.145804405212402,1.285722255706787,4.84305477142334,4.023373126983643,2.3614983558654785,1.3450956344604492,2.5001676082611084,1.6919655799865723,1.244005799293518,3.1517820358276367,2.3994381427764893,,,,3.349738597869873,2.0846290588378906,2.881845712661743,2.787360906600952,1.081364393234253,5.619858741760254,1.3155890703201294,2.0087788105010986,3.0536227226257324,2.6498396396636963,2.4779772758483887,2.2912516593933105,2.9850659370422363,2.635801315307617,,9.988555908203125,2.6950695514678955,7.050824165344238,3.5121166706085205,5.950605392456055,5.624721050262451
180,,2.1309866905212402,1.3894011974334717,6.701961040496826,8.271892547607422,1.3054763078689575,4.929342746734619,4.058775424957275,2.3605425357818604,1.3405078649520874,2.505899667739868,1.6983919143676758,1.244005799293518,3.148947238922119,2.42549729347229,,,,3.4141948223114014,2.0846290588378906,2.8837032318115234,2.787360906600952,1.084743618965149,5.6333723068237305,1.3138173818588257,2.0135011672973633,3.062638521194458,2.685720920562744,2.487121105194092,2.2988133430480957,3.007925271987915,2.6339259147644043,,10.051857948303223,2.700032949447632,7.054643630981445,3.521437406539917,5.990175247192383,5.694488525390625
181,,2.1429948806762695,1.393555998802185,6.736946105957031,8.282092094421387,1.2951699495315552,4.919290542602539,4.114269256591797,2.3624536991119385,1.3432605266571045,2.4934799671173096,1.7029820680618286,1.2449496984481812,3.1498920917510986,2.442870616912842,,,,3.4717092514038086,2.1094460487365723,2.8855607509613037,2.7883050441741943,1.0898125171661377,5.6540937423706055,1.3164750337600708,2.0210561752319336,3.061736583709717,2.692000150680542,2.4889495372772217,2.2969226837158203,3.0174496173858643,2.6554923057556152,,10.03296184539795,2.7298126220703125,7.029816627502441,3.5326220989227295,6.025977611541748,5.730315208435059
182,,2.138376235961914,1.3960487842559814,6.74412202835083,8.294144630432129,1.2968875169754028,5.010605335235596,4.116183280944824,2.386345863342285,1.361611008644104,2.5183191299438477,1.7139986753463745,1.2449496984481812,3.148947238922119,2.4486618041992188,,,,3.5183162689208984,2.1144096851348877,2.881845712661743,2.787360906600952,1.091502070426941,5.694633960723877,1.3324216604232788,2.0210561752319336,3.065343141555786,2.6866183280944824,2.4907784461975098,2.2884156703948975,3.0250699520111084,2.6714322566986084,,10.0386323928833,2.734776020050049,7.1186203956604,3.507456064224243,6.067431926727295,5.8189377784729
183,,2.124521255493164,1.3968799114227295,6.8347249031066895,8.287654876708984,1.3192180395126343,4.963691711425781,4.142974376678467,2.402592420578003,1.3689512014389038,2.510676860809326,1.7185890674591064,1.2477816343307495,3.146111488342285,2.4515573978424072,,,,3.527240753173828,2.0935633182525635,2.8837032318115234,2.7883050441741943,1.088122844696045,5.697336673736572,1.326220154762268,2.027667284011841,3.062638521194458,2.7036616802215576,2.501750946044922,2.292196750640869,3.04126238822937,2.672370433807373,,10.09815502166748,2.741724729537964,7.121485710144043,3.541943073272705,6.114538669586182,5.83590841293335
184,,2.1143603324890137,1.3885701894760132,6.8392109870910645,8.321958541870117,1.3166414499282837,4.9863104820251465,4.114269256591797,2.4092824459075928,1.3726212978363037,2.5316946506500244,1.7075722217559814,1.2449496984481812,3.146111488342285,2.44962739944458,,,,3.48162579536438,2.075695037841797,2.8837032318115234,2.7883050441741943,1.0889678001403809,5.677517414093018,1.3244482278823853,2.034278392791748,3.0716545581817627,2.707249641418457,2.5118093490600586,2.293142080307007,3.0222127437591553,2.67049503326416,,10.076422691345215,2.73378324508667,7.1138458251953125,3.521437406539917,6.043878555297852,5.8406219482421875
185,,2.1199023723602295,1.3860769271850586,6.788078784942627,8.251495361328125,1.3054763078689575,4.927667617797852,4.048250198364258,2.3806118965148926,1.362528681755066,2.5183191299438477,1.7066541910171509,1.2430620193481445,3.1432762145996094,2.430323600769043,,,,3.4667513370513916,2.065768241882324,2.881845712661743,2.787360906600952,1.087278127670288,5.697336673736572,1.3138173818588257,2.0475001335144043,3.0743589401245117,2.6821329593658447,2.5044941902160645,2.2903060913085938,3.0326898097991943,2.661118268966675,,10.077367782592773,2.712937593460083,7.078515529632568,3.5316901206970215,6.059895038604736,5.777454853057861
186,,2.1199023723602295,1.371950387954712,6.842798709869385,8.214411735534668,1.3217947483062744,4.879915237426758,4.068342685699463,2.3834786415100098,1.35243558883667,2.513542652130127,1.6965558528900146,1.2449496984481812,3.1451668739318848,2.4525227546691895,,,,3.4756760597229004,2.0876071453094482,2.882774591445923,2.787360906600952,1.087278127670288,5.70814847946167,1.3253343105316162,2.037111282348633,3.092390298843384,2.6893091201782227,2.5099802017211914,2.287471055984497,3.0431668758392334,2.672370433807373,,10.123663902282715,2.7496657371520996,7.131988048553467,3.578294515609741,6.062720775604248,5.822709560394287
187,,2.118978977203369,1.3910629749298096,6.828446865081787,8.297853469848633,1.3278067111968994,4.970393180847168,4.040595531463623,2.374877691268921,1.362528681755066,2.5336050987243652,1.7084904909133911,1.2411744594573975,3.1451668739318848,2.4197065830230713,,,,3.48460054397583,2.0647754669189453,2.879988431930542,2.787360906600952,1.1024848222732544,5.765806198120117,1.327106237411499,2.068277359008789,3.1239452362060547,2.700970411300659,2.5346686840057373,2.272346258163452,3.010782480239868,2.675183057785034,,10.118940353393555,2.7079741954803467,7.055598258972168,3.588547468185425,6.059895038604736,5.79536771774292
